"283
283
284
284
285
285
286
286
287
288
289
288
289
289
290
291
290
291
291
292
292
292
292
292
292
292
293
293
292
293
292
292
292
292
291
292
291
291
291
291
290
291
290
291
290
290
291
291
290
290
290
291
290
291
290
291
291
292
293
293
295
295
296
297
297
299
300
300
302
303
303
304
305
304
305
305
306
305
306
306
306
306
306
306
306
306
306
306
306
306
305
305
305
306
305
306
305
305
305
305
305
305
305
305
304
305
304
304
304
303
303
304
302
302
302
301
301
302
301
302
301
301
301
301
302
302
302
303
303
304
304
304
304
304
304
304
304
303
303
303
302
301
302
301
302
301
302
301
301
301
301
301
301
301
302
302
302
303
302
303
303
304
303
304
304
304
304
306
305
305
306
307
307
307
307
308
307
306
306
306
305
305
305
305
305
304
304
304
304
304
304
304
304
304
304
304
303
303
303
302
302
301
301
301
301
300
299
299
299
299
300
298
299
298
298
297
297
296
296
296
295
295
294
294
293
292
292
291
290
289
288
288
287
286
285
286
284
284
283
284
283
282
282
282
282
281
279
279
279
279
278
278
277
277
278
277
278
278
277
278
278
278
277
278
277
277
277
276
277
276
276
275
275
275
275
275
275
274
273
273
274
273
273
273
273
273
274
274
274
274
274
274
274
274
274
274
274
275
275
275
274
275
275
275
276
278
277
278
280
281
281
282
282
284
284
286
286
287
288
289
289
291
291
291
292
293
293
295
297
297
298
298
299
300
301
302
303
304
305
305
306
307
308
308
309
310
311
311
311
311
311
311
311
310
310
310
309
308
308
307
306
306
305
305
305
304
304
305
304
304
305
306
305
307
307
307
308
308
308
309
310
309
309
309
308
307
308
307
307
307
306
306
306
306
305
304
305
304
304
303
302
301
300
298
298
297
296
295
295
294
293
292
292
292
293
293
293
292
293
293
294
294
294
295
296
296
296
297
297
298
298
299
299
299
299
301
301
302
302
303
304
304
305
306
306
306
306
306
307
307
306
307
307
307
307
307
307
307
306
306
305
305
306
306
306
304
305
304
304
305
304
303
303
303
302
301
302
301
301
301
300
301
300
300
300
299
299
298
298
297
297
298
297
296
295
295
295
295
294
296
296
296
296
296
297
297
298
298
299
299
300
300
301
301
301
301
301
301
301
301
301
301
302
303
303
304
305
304
304
304
305
304
306
307
307
306
308
308
307
307
310
307
307
308
308
309
308
309
309
311
309
310
311
312
312
313
313
316
314
314
315
317
318
318
319
321
319
321
322
322
321
323
322
323
322
321
320
319
319
317
317
317
316
315
314
313
312
311
312
310
309
308
308
307
307
305
306
305
305
304
304
303
303
302
302
302
302
302
303
302
302
303
303
304
303
304
305
305
307
306
306
306
306
307
307
307
307
308
307
308
307
307
306
306
306
305
305
305
304
304
303
303
302
301
301
300
299
299
299
298
297
297
297
296
296
295
294
294
294
294
295
294
295
294
296
295
295
295
295
294
295
295
295
294
294
293
293
293
293
292
292
292
292
292
292
293
293
294
293
294
293
294
294
293
293
293
293
293
293
293
292
293
292
293
292
293
292
292
292
291
291
291
290
289
289
288
288
288
287
287
286
286
286
285
286
284
284
285
284
284
285
285
285
286
287
286
287
288
291
290
290
291
292
291
291
292
293
294
295
295
296
297
297
298
298
298
298
299
300
299
300
300
300
300
299
299
299
298
297
297
296
296
295
295
294
294
292
292
292
291
290
290
289
288
289
288
289
288
288
288
289
289
289
289
289
287
288
288
288
288
288
287
288
288
288
289
289
289
288
290
290
290
291
291
291
292
292
293
292
293
293
293
293
294
294
294
294
294
294
294
294
294
294
294
293
293
292
292
292
291
290
290
289
288
288
287
286
287
286
285
285
284
284
283
283
282
282
281
281
279
278
278
278
277
276
275
275
273
273
272
271
270
269
268
267
265
264
263
262
261
260
259
257
257
255
254
253
252
250
249
248
247
246
245
244
244
242
241
241
240
239
238
237
237
236
235
235
234
234
235
234
234
234
236
236
236
237
237
238
240
240
242
243
245
246
248
251
252
255
256
260
263
267
271
274
278
280
283
285
287
290
290
293
293
294
295
297
299
300
301
304
307
309
312
315
318
322
326
330
333
337
340
342
345
346
348
349
350
350
351
350
350
350
349
347
345
343
340
336
333
330
326
321
317
314
310
305
301
298
295
294
293
294
294
296
298
300
303
306
308
311
314
317
319
320
321
324
325
327
327
329
329
330
331
331
331
331
331
331
330
329
328
327
325
323
321
320
318
316
314
313
311
310
308
308
306
305
304
304
303
302
302
302
302
301
300
300
299
299
297
296
296
295
294
292
291
290
289
288
286
286
284
283
281
281
280
279
278
279
278
278
277
278
277
278
277
277
277
276
277
277
277
277
277
277
277
277
277
276
277
276
276
275
276
276
276
276
276
276
276
277
277
277
276
276
276
276
276
276
276
276
276
276
277
276
276
276
276
276
277
277
277
278
278
278
278
278
278
278
278
277
277
277
276
277
276
275
275
275
273
273
273
272
273
272
273
272
272
272
272
273
272
272
272
272
272
271
271
270
269
268
268
268
266
266
265
264
262
262
261
259
257
258
256
256
255
255
254
255
254
254
253
252
251
251
251
252
251
251
250
251
251
252
253
252
253
254
255
255
256
257
257
258
259
260
261
261
264
265
269
270
273
274
278
280
283
285
288
290
293
293
296
297
298
298
299
300
301
301
301
302
302
302
302
302
303
303
303
304
304
305
304
305
306
307
307
309
309
310
310
311
311
313
312
314
313
315
315
316
316
316
316
317
317
317
316
316
316
315
316
316
316
316
316
314
314
312
312
310
309
307
307
305
305
304
304
303
303
303
303
303
303
303
303
302
302
302
302
302
302
302
303
304
305
306
308
309
309
311
311
311
312
312
312
313
312
312
312
313
312
312
311
311
310
310
309
308
307
306
305
304
303
302
301
301
299
298
298
297
297
296
297
297
297
297
296
296
296
297
297
297
298
298
299
299
300
300
301
301
301
302
302
303
304
304
304
304
305
304
304
305
305
305
305
306
306
306
307
307
307
308
308
308
308
308
308
307
307
308
307
307
307
307
307
306
306
306
305
305
305
305
304
304
303
303
302
302
302
303
302
301
301
301
301
300
300
300
300
300
300
299
299
299
299
298
299
299
299
298
298
297
298
298
297
297
297
296
296
296
296
296
296
297
297
297
298
299
299
300
300
300
300
300
300
300
299
299
299
299
299
299
299
300
299
300
300
300
301
301
300
302
301
301
302
302
302
302
301
301
302
301
303
302
303
303
303
303
303
303
304
304
303
303
304
303
303
303
304
304
305
305
305
306
307
307
308
308
309
310
310
310
310
311
311
312
311
312
312
312
311
312
312
312
311
311
310
309
309
308
308
308
307
306
307
306
307
307
307
307
307
307
308
307
308
308
308
309
310
310
310
311
311
312
313
313
313
313
314
314
315
315
315
315
315
316
317
319
320
321
321
323
323
323
323
324
324
323
323
323
322
321
320
320
318
318
316
315
313
313
312
311
311
310
309
309
308
307
307
307
306
306
306
306
306
305
305
304
305
304
304
304
304
304
304
303
303
303
303
302
302
301
301
300
302
301
302
302
303
303
303
303
303
304
304
304
304
304
304
304
303
304
304
305
304
305
304
304
304
305
304
304
304
304
304
304
304
305
304
305
305
305
305
305
304
305
305
305
306
306
305
305
306
305
305
305
305
304
305
304
304
303
303
302
302
300
300
299
298
297
296
295
294
293
292
291
290
288
286
285
283
283
281
280
279
279
277
277
276
275
274
274
273
272
270
270
268
268
266
265
264
264
263
262
260
259
258
258
256
256
254
254
253
252
251
250
249
248
248
247
246
245
245
244
243
242
243
241
241
240
241
240
241
241
241
241
242
242
242
242
242
243
243
244
245
245
246
246
246
247
248
249
250
252
253
255
256
258
260
262
263
266
268
270
271
275
275
278
279
282
283
287
290
292
295
297
299
302
304
307
309
312
314
316
318
319
321
322
324
326
328
330
333
335
339
342
346
348
351
353
355
357
360
362
364
365
369
371
373
375
377
379
380
382
383
385
385
387
386
387
387
389
390
391
392
393
392
392
389
388
385
383
380
378
376
374
372
370
368
366
365
365
365
363
363
362
361
359
357
356
355
352
351
348
347
344
342
339
337
335
333
331
330
328
327
326
325
323
323
322
322
321
321
321
320
320
319
319
319
318
319
318
317
318
316
316
315
315
314
314
313
313
312
312
311
311
311
310
309
310
309
310
309
309
309
309
309
309
309
308
308
308
307
307
308
308
308
308
308
307
308
307
307
306
306
305
306
304
304
304
304
303
303
303
302
302
301
301
301
301
301
301
300
301
301
300
301
301
299
300
300
300
299
300
298
299
299
299
299
300
300
300
300
300
300
301
300
300
300
300
300
300
299
299
298
298
298
298
298
298
298","297
298
299
300
301
302
305
304
305
303
302
303
301
301
301
302
302
304
304
302
304
303
303
304
305
303
302
302
301
300
300
299
298
297
296
296
295
294
294
293
294
293
293
293
292
291
291
290
291
290
289
289
290
289
289
288
289
289
289
289
289
289
290
291
291
292
292
292
292
293
294
294
294
293
294
295
295
295
296
295
295
296
298
297
295
297
298
297
298
297
297
298
298
299
299
300
299
300
300
300
300
301
300
299
298
298
298
297
297
297
296
295
295
294
295
293
293
292
292
292
292
290
291
291
291
291
292
291
291
292
292
292
293
293
293
293
293
294
294
294
295
294
295
294
294
293
293
293
294
291
291
292
290
290
289
289
288
288
288
287
287
287
286
286
285
285
285
285
284
285
285
285
285
285
285
285
285
287
286
287
287
287
287
287
288
286
288
288
288
288
288
291
291
290
291
291
291
292
291
291
291
291
291
291
291
291
291
290
291
291
290
290
290
291
290
290
291
290
291
291
291
290
291
290
290
290
290
291
290
290
290
290
290
290
290
290
290
290
290
290
290
290
291
291
290
289
290
291
290
291
292
291
291
290
291
290
290
291
291
293
291
291
291
291
291
291
291
291
291
291
291
291
291
290
290
289
289
289
289
289
289
289
288
288
287
287
286
287
287
288
287
288
288
289
290
291
291
291
291
291
292
293
293
294
295
296
296
297
297
298
298
299
299
298
299
298
298
299
299
298
298
298
298
297
297
297
297
297
297
297
296
296
295
295
294
294
294
293
293
292
292
292
292
291
289
290
290
289
289
289
289
288
288
288
288
287
287
288
287
286
285
285
285
285
284
284
284
283
283
282
283
282
282
282
282
282
281
282
282
281
282
282
281
282
281
282
283
282
282
282
283
284
283
284
284
284
284
285
285
286
286
286
287
287
287
287
287
288
288
289
288
288
288
288
288
288
288
288
288
288
287
287
287
287
287
287
287
288
288
288
288
288
288
288
287
288
288
288
287
288
289
288
286
288
287
287
287
288
288
287
287
287
287
287
287
287
287
289
287
288
288
289
289
288
289
289
290
290
289
290
290
291
292
292
292
293
293
293
292
293
293
291
291
292
291
290
290
290
289
289
289
288
288
288
288
287
287
287
287
287
287
287
286
286
287
287
286
287
288
288
288
288
290
289
289
291
292
292
293
293
293
294
295
296
296
297
298
298
299
299
299
300
300
300
301
301
301
301
301
301
301
301
301
299
301
301
300
300
302
300
300
299
299
300
299
299
298
298
297
298
298
297
296
296
296
296
296
296
296
296
296
296
297
297
297
297
298
298
298
298
297
298
297
298
298
298
298
298
298
299
298
298
297
297
297
297
297
297
297
296
297
296
297
297
297
297
297
297
297
296
296
297
297
296
296
296
297
296
296
296
296
296
295
295
298
295
296
296
296
296
296
296
296
296
295
296
295
295
295
295
295
295
294
294
294
293
294
295
294
294
295
294
294
294
295
295
295
295
295
294
294
294
294
294
293
293
292
291
292
292
291
290
290
290
289
289
289
288
288
287
288
287
286
287
286
286
286
285
286
285
285
286
285
284
284
284
284
284
283
283
283
284
283
283
283
282
282
282
281
281
282
283
281
280
281
281
281
281
281
281
281
281
280
280
280
280
280
279
280
280
281
281
281
283
283
284
285
285
286
286
287
287
287
287
287
288
287
287
286
287
285
287
285
285
285
284
284
283
282
281
281
281
280
280
280
279
278
278
278
277
277
277
278
278
278
278
279
278
279
279
280
281
281
281
282
282
283
284
285
285
286
287
287
288
288
289
289
289
288
289
289
290
290
290
290
290
290
291
290
291
290
291
291
291
291
292
291
291
292
293
291
293
293
294
294
296
296
297
297
299
299
301
301
302
303
304
304
305
306
306
307
308
308
308
308
308
307
309
309
308
309
308
308
309
309
308
308
308
308
308
308
307
307
307
307
306
306
306
305
305
305
304
305
303
303
302
302
301
302
301
300
300
299
300
299
299
298
298
297
296
295
295
294
293
292
291
291
290
289
289
288
287
287
286
285
285
284
284
284
283
283
283
282
282
280
281
280
281
281
282
282
282
282
282
283
283
283
282
282
283
282
283
282
282
282
282
282
281
281
282
281
280
280
280
279
279
280
280
279
281
281
280
283
282
282
282
283
285
284
284
284
285
284
284
284
284
284
284
283
283
282
283
282
283
283
283
283
281
284
283
283
283
284
284
285
285
286
285
286
287
287
287
288
287
287
288
289
289
289
288
289
289
291
287
289
290
290
290
291
292
293
294
295
295
295
294
297
296
296
297
297
297
299
299
299
299
299
300
301
301
301
301
302
301
302
302
302
303
302
302
302
303
302
302
302
302
302
302
303
302
303
303
302
302
301
301
301
300
301
299
299
299
299
298
297
297
297
296
296
296
296
295
295
295
296
296
296
297
297
297
298
299
300
300
301
301
304
304
304
305
305
306
307
307
308
307
308
308
307
308
308
308
309
309
310
308
308
308
310
310
310
309
309
310
311
311
312
313
312
312
312
311
311
311
311
310
310
310
309
309
308
308
308
307
307
306
306
305
305
305
304
303
304
304
303
303
303
303
303
302
302
301
301
301
300
301
300
300
300
300
300
300
300
300
300
301
300
301
301
302
301
303
302
303
303
303
304
304
304
304
304
303
305
305
305
305
306
306
306
306
306
306
306
307
308
307
307
306
307
306
307
306
306
306
305
305
304
304
304
303
303
303
303
302
301
301
300
300
300
299
299
298
297
297
296
296
296
295
294
294
294
294
294
294
293
293
294
294
295
295
295
296
296
296
297
297
298
298
297
298
298
299
298
298
299
298
298
299
300
298
300
299
300
299
299
299
299
298
299
298
298
297
297
297
297
296
296
294
295
294
294
294
292
292
291
291
291
292
290
291
291
293
292
293
293
294
295
295
296
297
297
298
298
298
298
298
298
298
298
296
296
296
295
294
294
293
294
293
293
293
293
292
292
293
292
292
292
292
292
292
292
292
292
291
293
292
291
292
292
292
292
291
291
291
289
291
291
290
291
290
290
289
291
290
291
291
291
292
293
293
294
295
296
297
297
298
297
299
299
300
300
300
300
301
300
300
301
301
301
303
301
302
301
300
300
300
300
299
299
299
298
299
299
298
298
299
297
297
297
296
295
294
294
294
294
294
293
293
293
292
292
291
290
289
290
288
288
288
287
287
287
287
287
287
286
286
286
286
287
287
288
289
289
290
290
291
292
292
293
293
294
294
295
296
296
297
296
297
297
298
298
298
300
298
299
298
299
299
300
300
301
300
299
300
300
299
299
298
299
297
298
297
296
296
296
296
295
295
294
295
294
293
293
292
293
292
291
291
291
290
290
289
289
288
288
288
287
287
287
287
287
287
288
288
289
290
290
291
291
293
292
294
294
294
295
296
295
296
296
296
297
297
298
299
298
299
299
301
300
299
300
299
299
299
300
299
299
299
300
300
299
299
299
297
298
296
295
295
294
294
293
291
291
290
289
289
289
288
288
288
288
288
287
288
287
288
287
287
288
288
289
289
289
289
289
289
289
289
289
289
290
289
290
290
290
290
290
290
291
291
291
291
293
292
292
293
293
293
295
293
293
294
294
294
294
294
295
295
295
294
295
294
295
294
294
294
294
294
294
293
293
293
292
291
294
291
291
290
290
290
289
289
290
289
289
289
289
289
289
290
290
291
291
292
291
292
293
292
293
293
293
293
294
293
293
294
292
292
293
293
294
293
293
293
293
293
293
292
292
292
293
293
293
293
293
292
292
293
293
294
294
294
294
294
295
295
296
296
296
296
296
296
297
297
296
297
296
296
296
296
295
296
295
295
294
293
293
292
292
293
292
292
292
292
292
292
292
292
292
293
292
292
293
293
293
293
294
293
294
293
294
293
294
293
294
294
294
294
294
294
294
294
293
294
294
294
294
294
293
294
293
293
293
294
293
293
293
293
293
293
293
293
293
294
293
294
294
293
293
293
293
293
294
293
293
293
294
294
295
294
294
294
294
294
294
294
295
294
295
294
295
295
295
294
294
294
294
295
295
295
295
295
293
295
295
294
295
295
295
295
295
295
295
295
294
296
295
294
295
294
295
294
294
294
295
295
294
295
294
294
294
295
294
295
294
295
294
294
294
294
293
294
293
294
295
293
293
293
293
294
293
293
293
293
294
293
293
294
293
293
293
293
293
293
293
292
293
293
293
293
293
293
293
293
292
292
293
292
291
292
292
292
291
292
292
292
292
292
291
292
291
292
292
292
292
291
292
292
292
291
291
292
290
292
291
292
292
291
291
291
292
291
292
291
291
292
291
292
291
292
292
292
292
291
292
291
291
292
291
292
293
292
292
292
292
292
293
292
292
293
293
293
292
293
293
292
292
292
293
293
293
292
293
293
293
293
293
293
293
292
292
293
293
292
292
292
292
292
291
292
292
292
291
292
292
291
292
292
292
293
292
291
292
292
292
292
292
293
292
292
293
292
292
293
293
293
293
293
294
293","295
294
294
294
294
293
293
292
293
291
291
290
290
289
288
288
288
285
287
286
284
286
286
286
284
285
284
284
282
283
284
286
285
287
287
288
288
288
289
289
290
290
289
291
290
291
292
292
292
291
292
293
292
291
290
290
288
287
287
286
286
285
286
284
284
283
284
283
284
284
284
284
285
285
286
285
284
283
285
287
287
286
288
288
288
289
289
288
288
287
287
288
288
285
285
286
285
283
280
283
283
285
284
283
278
279
277
281
284
285
285
285
283
281
285
287
287
289
290
291
291
292
293
293
294
293
294
293
294
293
294
293
293
293
292
291
290
289
289
289
289
289
288
288
288
288
288
288
290
291
292
291
293
295
294
296
297
299
300
298
300
302
301
302
303
302
302
304
304
302
300
299
300
299
299
299
296
296
295
295
294
293
292
293
292
288
291
292
292
293
292
292
293
292
291
291
292
291
292
292
294
293
294
294
294
294
295
294
295
296
295
296
296
294
294
293
294
293
292
292
292
292
292
292
293
294
293
294
294
294
294
296
296
296
294
296
295
294
296
293
292
293
293
293
293
291
290
290
279
281
286
287
288
282
276
283
286
286
288
289
289
282
293
294
299
300
297
297
297
299
303
302
304
303
301
305
306
308
307
308
309
308
308
308
307
308
309
309
309
309
307
307
305
304
303
303
301
300
298
295
294
293
291
292
292
292
291
292
290
289
289
288
288
288
287
287
286
286
286
287
287
288
287
287
288
287
288
288
290
289
289
287
288
289
289
288
290
291
292
290
292
290
291
290
289
290
289
288
290
289
289
287
286
287
287
288
290
291
292
293
292
294
294
296
296
296
295
296
296
296
296
296
296
296
295
296
297
296
295
294
295
294
294
293
292
293
292
291
292
291
292
291
292
290
290
289
291
292
291
291
290
289
289
288
289
287
288
288
288
288
287
287
286
286
286
285
285
285
284
283
283
281
280
280
278
279
277
277
277
276
276
277
276
277
277
279
279
280
280
282
283
284
285
287
286
288
290
291
293
293
295
294
297
299
300
300
301
300
300
301
302
302
301
301
301
300
301
300
300
299
299
298
298
296
297
297
296
296
296
295
295
295
296
295
295
296
297
296
297
298
299
299
299
299
299
300
300
301
301
301
301
301
301
302
301
301
300
300
300
299
300
300
299
299
299
299
299
299
298
298
298
298
299
298
298
298
299
299
300
299
299
299
300
300
301
300
302
302
302
302
302
302
303
303
304
303
303
303
302
302
302
302
302
302
301
301
301
302
302
302
303
305
303
302
303
303
304
304
304
304
304
304
303
303
303
303
303
302
303
302
303
303
302
302
302
303
302
301
301
303
303
302
302
302
302
300
301
301
302
301
300
300
300
298
298
298
298
297
296
295
294
293
293
292
292
291
290
290
289
289
289
289
288
288
288
289
288
289
289
290
289
290
290
291
291
292
292
292
291
293
291
292
294
294
294
294
294
294
293
294
294
294
294
295
295
294
295
295
295
294
295
295
295
294
295
294
295
295
296
295
295
295
294
294
293
293
293
292
293
292
292
292
292
291
291
291
292
292
292
291
291
291
291
291
291
292
292
292
292
293
293
294
294
294
295
294
293
296
296
297
298
299
299
298
298
298
299
297
298
298
297
296
296
295
295
294
293
294
294
294
294
293
294
293
293
293
294
294
295
295
295
296
295
296
296
296
296
295
295
294
295
296
298
296
296
296
295
296
295
296
298
299
298
299
301
301
300
299
301
302
302
303
301
301
300
301
299
300
299
299
299
298
297
298
298
296
296
296
296
295
295
295
295
294
294
294
294
293
294
293
294
294
293
292
292
293
293
293
294
293
295
294
293
293
294
295
294
295
294
297
296
296
297
297
298
297
297
298
297
298
299
298
299
301
300
301
300
300
299
299
297
297
297
297
297
298
297
296
296
296
296
295
295
294
294
293
293
293
293
293
293
292
293
292
292
291
291
291
292
292
293
291
293
292
292
292
291
291
293
292
292
293
293
293
292
294
292
294
295
297
296
296
295
296
297
297
298
299
298
300
300
300
300
300
298
299
299
299
298
298
298
297
298
296
296
296
296
295
296
295
295
295
295
294
294
294
294
293
293
293
293
292
294
293
292
293
293
292
292
293
293
292
293
293
293
293
293
293
294
294
293
294
294
294
293
294
294
294
293
294
293
294
295
294
294
295
294
296
295
295
296
295
295
295
296
296
296
295
296
296
297
298
298
297
298
298
299
299
298
298
298
298
298
298
298
297
296
295
294
293
293
293
292
292
293
292
291
290
290
289
289
289
288
288
288
289
288
289
289
289
289
289
289
290
289
288
289
290
289
291
291
290
290
292
292
293
295
296
297
298
298
298
296
300
299
299
297
301
301
302
303
304
303
302
301
302
302
301
302
300
300
299
300
298
299
297
297
297
296
296
297
295
296
295
296
295
296
295
296
295
295
296
296
295
294
292
292
293
294
294
294
294
294
294
294
295
295
295
295
296
296
296
295
295
297
297
297
297
297
297
296
294
295
296
296
297
297
297
298
299
299
299
300
300
301
300
300
299
299
299
298
297
296
293
294
292
293
293
294
295
293
294
293
293
294
293
293
294
291
293
295
296
296
296
296
298
298
297
298
299
299
299
298
298
297
300
298
299
299
299
297
298
298
298
298
298
298
298
297
297
296
296
295
296
297
297
296
296
297
296
296
296
296
295
296
296
297
297
297
295
295
294
295
293
294
292
292
292
290
290
288
289
289
288
287
287
287
286
286
286
286
287
288
289
288
289
289
290
290
290
290
291
291
291
292
292
292
292
291
292
292
293
292
293
292
293
293
292
292
292
293
293
293
294
293
292
292
292
293
292
293
293
293
292
293
292
293
293
294
293
293
292
293
294
293
293
294
295
294
294
294
294
294
294
294
294
295
295
294
295
295
296
295
295
294
295
295
296
296
296
296
296
297
297
297
296
296
296
297
297
297
297
296
296
296
296
297
296
296
296
296
296
296
296
296
296
297
297
298
297
297
297
297
297
297
298
297
297
298
298
298
298
298
296
296
297
296
296
296
296
295
296
295
295
295
295
295
296
295
296
296
296
296
296
296
296
296
295
294
295
293
292
292
292
291
292
292
292
292
293
293
293
293
293
294
293
293
293
293
293
292
293
293
293
294
293
294
293
294
294
294
294
295
294
296
295
295
295
295
295
296
295
295
295
295
295
295
295
295
295
296
296
296
296
295
295
295
296
295
296
296
296
295
296
296
297
296
297
297
297
296
298
297
297
297
297
298
298
298
298
298
297
298
298
298
298
298
298
298
298
298
297
298
297
297
298
297
297
298
297
298
298
297
297
297
298
297
298
297
298
297
297
298
298
297
297
297
297
297
298
297
297
297
297
297
298
296
297
297
297
297
297
297
297
296
297
296
296
297
297
297
297
296
297
297
297
297
297
297
297
298
298
298
298
298
297
297
296
296
296
296
295
296
295
295
294
295
294
295
294
295
294
295
295
294
295
295
294
295
293
294
294
294
294
294
294
294
294
294
294
294
295
294
295
295
295
295
296
295
295
294
295
295
296
295
294
295
294
295
295
295
295
295
295
295
295
295
295
295
295
294
294
295
294
295
294
295
294
295
294
295
295
296
296
296
296
296
297
297
296
297
296
295
295
295
294
295
294
295
295
294
293
293
294
294
295
295
296
296
297
296
297
297
298
297
297
297
297
297
297
296
296
296
296
295
296
296
296
296
297
297
297
297
297
297
297
297
296
296
297
296
296
297
296
297
296
297
296
297
297
296
296
296
296
296
297
297
296
297
296
297
297
298
298
298
298
298
299
299
299
299
300
300
300
300
300
300
301
301
301
300
301
300
301
300
300
300
300
300
301
300
300
300
301
300
301
300
301
300
301
301
301
301
300
300
300
300
299
300
299
299
299
299
298
299
298
298
298
298
298
298
298
298
298
299
298
299
298
299
298
298
298
299
298
298
297
298
298
298
298
297
297
298
298
297
297
297
297
297
298
297
298
298
298
297
297
296
296
295
296
295
295
295
295
295
295
294
295
294
295
295
295
295
295
295
295
296
295
295
295
295
294
295
294
296
294
295
294
295
294
295
295
295
295
296
295
295
295
296
296
296
295
296
295
295
295
296
296
295
295
294
295
295
295
294
296
295
297
295
296
296
297
296
297
297
297
297
298
297
298
298
298
298
297
298
298
298
298
298
298
298
298
298
298
299
299
299
299
300
299
300
300
300
300
300
300
300
300
300
300
300
300
300
300
300
300
301
301
300
300
301
301
300
301
301
301
300
301
300
300
300
301
300
300
300
300
299
299
299
299
298
300
298
299
298
299
297
298
298
298
298
298
298
298
298
298
298
298
298
298
298
298
298
298
299
298
298
297
297
297
298
297
298
297
297
297
297
297
296
297
297
297
297
297
297
297
297
297
297
297
297
297
296
297
296
297
296
296
296
296
295
296
296
296
296
296
297
297
296
297
297
297
298
297
297
298
297
297
298
296
297
297
297
296
297
297
297
296
297
297","293
294
294
294
293
294
295
295
295
297
295
296
296
296
295
294
294
294
294
294
293
293
293
293
292
293
292
293
292
293
293
294
293
294
293
294
294
294
295
295
295
294
295
295
295
295
295
295
296
295
295
295
295
296
297
296
296
296
296
296
297
297
297
297
297
297
297
297
296
297
297
297
297
296
296
295
295
295
295
295
294
295
294
294
293
293
293
293
292
291
291
291
291
291
290
291
290
290
290
290
289
289
290
290
289
289
289
289
289
289
290
290
291
291
290
290
290
290
290
290
290
289
289
288
289
288
288
287
287
287
287
287
287
286
286
286
287
287
286
285
285
284
284
284
285
285
285
286
286
287
287
288
288
289
290
291
290
293
292
294
294
293
293
295
294
295
295
296
295
296
296
296
297
297
298
298
299
298
299
300
300
300
301
300
301
302
301
302
302
302
302
302
303
304
303
303
303
302
302
302
303
301
301
301
301
300
300
300
300
299
298
299
299
299
298
298
298
298
298
298
298
298
298
298
298
299
299
300
300
301
301
302
302
302
302
303
302
304
304
304
304
304
305
304
304
304
305
304
305
305
305
306
306
305
305
305
306
306
305
305
305
304
304
304
304
304
304
304
305
304
304
303
304
303
302
302
301
302
302
302
302
302
301
302
302
302
302
303
303
303
302
302
302
302
303
303
303
303
303
302
303
302
303
303
302
303
303
303
303
303
303
303
303
302
302
303
303
301
302
302
302
301
301
301
301
300
301
299
298
298
297
297
296
296
296
296
296
294
294
294
293
292
293
292
291
291
290
290
290
290
290
289
289
289
288
288
288
289
287
288
288
288
289
289
289
288
288
288
288
290
289
289
290
290
289
289
291
289
291
289
290
290
291
291
291
291
292
292
293
292
292
293
293
292
293
292
292
291
291
292
291
291
291
290
290
290
290
290
291
290
290
289
289
289
289
288
287
287
286
287
286
286
285
285
284
284
284
283
283
283
283
282
283
281
283
283
283
283
282
284
283
283
284
283
284
284
283
284
283
284
283
284
284
285
285
285
286
286
287
286
286
285
286
286
287
286
287
287
288
290
289
290
289
289
289
289
289
289
290
291
290
290
290
291
290
291
291
291
291
291
292
292
293
293
292
292
293
294
293
293
293
293
292
294
293
293
293
294
294
293
294
293
294
294
295
295
295
295
294
295
296
295
296
295
295
294
295
294
293
292
292
291
291
291
291
290
290
290
290
290
289
290
289
290
290
289
289
289
289
289
289
289
289
290
290
290
290
290
290
290
289
290
289
289
290
290
290
290
290
290
290
290
291
291
292
292
292
292
292
292
292
293
293
293
294
294
294
295
295
295
295
296
296
296
297
297
298
297
297
297
297
297
297
298
298
299
298
298
299
298
297
298
299
298
298
298
298
298
298
299
299
299
299
299
299
299
299
299
299
299
299
299
298
298
297
297
296
297
296
295
295
294
296
294
294
294
294
293
294
293
293
294
293
293
293
293
293
293
293
293
293
293
293
293
293
294
293
293
294
293
294
294
293
293
293
293
293
293
294
293
293
294
294
294
293
294
294
295
295
293
294
294
294
294
294
295
294
295
295
295
294
295
295
295
295
296
296
296
296
297
297
295
297
297
297
296
297
297
299
297
298
297
297
297
297
297
297
297
296
296
296
295
295
296
296
295
296
295
295
295
294
295
293
293
292
293
293
292
291
291
292
292
292
292
292
292
292
292
293
293
293
293
293
293
293
294
294
293
294
294
294
293
294
292
294
293
292
293
291
292
292
293
293
293
292
291
290
291
291
290
291
291
290
290
293
291
291
291
292
292
294
293
294
294
294
294
296
295
296
297
296
296
296
296
298
297
297
298
298
298
298
298
298
299
298
298
298
298
297
297
296
297
295
295
295
295
294
295
294
294
294
294
293
294
294
293
293
294
293
293
293
292
293
292
292
291
291
290
290
289
290
290
289
289
290
289
290
290
290
290
291
291
291
291
291
291
291
292
292
292
292
292
292
292
291
292
292
292
292
292
292
292
292
292
292
292
292
293
292
292
293
293
293
292
293
293
294
294
293
293
293
293
292
291
293
294
295
293
293
294
294
294
294
294
294
294
295
296
296
296
296
295
296
297
297
296
297
296
297
297
297
296
296
296
296
295
294
294
293
294
293
292
292
291
291
291
290
289
289
288
287
287
286
287
286
285
285
284
283
283
283
283
283
284
283
282
282
282
281
281
281
281
281
281
281
281
281
281
282
283
283
281
281
281
282
282
282
282
284
284
284
284
284
284
284
284
285
285
286
286
287
288
288
287
288
288
287
288
288
289
289
290
290
291
290
291
291
293
292
293
293
293
294
294
294
295
295
296
296
296
296
297
296
297
296
297
297
296
296
299
297
297
297
297
298
299
299
299
299
299
300
299
300
299
300
299
299
299
299
299
299
299
299
300
300
300
300
300
300
300
301
301
300
302
302
302
301
301
302
302
301
301
301
301
302
303
302
304
303
304
303
305
305
306
306
306
306
305
307
308
306
307
307
308
308
308
309
310
309
308
308
308
308
308
308
307
307
307
307
306
307
307
306
306
306
306
306
305
305
304
304
304
303
304
304
303
303
302
303
302
301
303
301
300
300
300
299
299
299
299
298
299
298
299
298
298
298
298
298
298
298
298
298
299
298
296
297
298
297
298
297
297
297
296
297
296
297
298
296
296
296
296
296
296
297
296
296
297
296
297
297
296
298
297
298
298
298
298
298
298
297
297
297
296
297
297
297
296
297
297
296
297
296
295
296
296
296
296
295
296
296
296
296
296
296
295
294
294
293
294
294
293
292
291
292
291
291
292
291
290
290
290
290
290
290
290
291
290
290
290
291
291
291
290
291
290
291
290
291
290
291
290
291
292
292
292
292
292
292
292
292
292
293
291
292
292
292
291
291
291
290
291
290
291
291
290
289
289
289
290
289
289
289
289
289
291
290
289
289
290
288
289
290
289
290
289
289
290
292
291
292
292
292
293
294
294
295
295
296
295
297
297
298
296
294
295
294
293
294
293
292
291
291
289
289
289
289
288
289
289
289
289
290
289
289
289
289
289
289
289
289
289
290
289
289
290
290
290
290
291
290
292
291
292
292
293
292
293
293
294
293
294
293
293
293
293
293
293
293
293
294
293
293
293
293
293
293
292
293
292
292
292
291
290
291
291
290
290
290
290
290
290
290
290
290
290
289
288
288
288
288
287
287
287
287
288
287
287
286
285
285
285
284
285
282
282
281
281
280
279
279
280
280
280
280
279
279
279
280
280
280
280
282
281
283
283
284
283
285
284
285
286
288
287
287
288
289
290
290
290
291
290
292
292
293
293
294
294
296
295
295
296
296
297
298
298
299
300
300
301
302
302
303
304
304
304
304
308
305
306
306
307
307
308
307
308
309
309
309
311
311
309
310
311
312
312
312
312
312
313
312
312
312
312
313
312
313
312
312
311
313
311
311
311
311
310
310
309
308
308
308
307
307
308
308
308
306
305
305
304
304
303
303
303
303
304
302
302
301
303
301
302
302
302
301
301
301
301
301
301
301
300
299
299
300
298
298
298
298
297
297
298
298
298
300
299
301
300
301
302
302
303
303
302
303
302
302
302
302
303
301
301
302
301
301
300
300
299
300
299
298
298
297
297
297
297
297
296
296
297
297
297
296
296
295
296
295
296
295
295
295
295
295
295
294
294
294
294
293
294
293
294
293
292
291
292
291
291
291
291
290
289
289
289
288
288
288
287
287
287
286
286
286
286
287
285
287
285
285
285
285
285
285
285
286
285
284
285
284
285
284
284
284
283
283
284
283
283
283
283
284
283
284
283
284
284
284
284
284
285
284
284
285
285
284
285
286
287
287
287
287
287
287
289
288
289
289
289
290
290
290
290
291
291
292
292
292
292
293
293
293
293
296
293
294
294
295
295
295
296
297
297
296
297
297
298
297
298
298
298
298
298
298
299
299
299
298
299
299
300
300
300
300
300
300
301
299
301
300
301
300
301
302
302
301
302
301
301
302
301
301
301
300
300
299
298
298
297
297
297
297
296
296
296
295
295
295
295
295
294
294
293
294
293
294
293
293
292
292
292
292
291
292
292
292
292
292
292
292
292
292
292
291
292
291
291
291
291
290
291
290
291
291
291
291
291
290
290
291
290
291
290
291
291
291
291
291
291
290
292
291
291
291
291
291
292
292
293
293
293
293
293
293
294
294
294
294
294
295
294
294
294
294
294
294
295
295
295
295
295
295
294
294
294
294
294
294
294
294
295
294
295
294
295
294
295
295
295
295
296
295
295
295
295
295
295
295
295
295
295
295
295
294
295
294
294
294
295
295
295
295
295
295
296
295
296
296
295
296
295
296
295
295
295
295
295
295
295
296
295
295
295
295
295
295
295
295
294
294
294
294
294
294
293
294
294
294
294
294
294
294
294
294
294
294
294
294
294
294
295
295
295
294
295
295
295
295
296
295
296
295
296
295
295
295
296
295
296
295
296
296
296
296
295
296
296
296
296
297
296","286
285
286
286
286
286
286
287
287
288
289
289
291
290
292
293
293
294
294
294
295
295
296
297
297
296
298
298
298
299
299
299
299
298
298
300
300
300
300
298
297
297
296
296
295
293
292
291
290
290
289
287
287
285
284
284
283
283
282
283
283
283
283
284
284
284
286
286
287
290
289
291
292
294
297
297
298
298
299
300
301
301
302
303
304
304
304
304
305
305
305
306
304
303
304
303
303
301
300
300
299
298
296
296
295
294
294
293
293
293
291
291
290
290
289
289
288
287
287
286
286
286
285
285
284
284
283
283
284
283
284
284
283
283
283
282
284
283
284
284
285
285
286
287
287
288
289
291
290
291
291
291
291
292
292
293
294
294
295
295
295
297
297
298
298
299
300
301
301
302
302
303
303
304
304
305
306
306
305
306
306
306
306
306
305
306
305
305
305
305
304
304
304
303
303
302
301
302
301
300
300
300
300
300
300
299
298
298
298
298
298
296
296
296
295
296
295
296
295
296
295
297
295
294
293
294
291
291
289
289
287
287
285
284
283
283
282
281
281
280
280
280
280
280
281
283
283
284
284
286
287
288
289
290
292
292
293
295
296
298
299
300
301
301
301
301
301
300
301
300
299
299
298
297
297
295
295
295
295
294
294
294
294
295
295
296
296
296
297
297
297
298
298
299
299
299
299
300
301
300
301
301
301
301
301
301
301
302
302
302
301
302
301
301
301
301
300
300
300
299
299
299
297
297
297
296
295
293
293
293
293
291
292
290
290
290
290
289
289
290
290
290
291
289
290
290
290
289
289
289
289
288
288
288
289
289
290
290
291
291
291
292
293
292
293
294
295
295
295
295
295
296
296
296
297
297
297
298
297
298
297
297
297
297
296
297
296
297
296
297
296
297
296
297
297
297
297
297
297
297
296
297
297
296
297
297
297
296
296
296
297
298
297
297
297
297
297
298
298
298
298
298
298
298
299
299
299
299
299
298
298
297
297
296
297
294
295
294
292
292
292
292
292
292
292
293
293
293
293
294
295
295
295
297
297
297
298
298
298
297
298
298
298
298
298
297
296
296
297
295
293
294
292
293
293
292
292
292
291
291
291
291
291
291
291
291
291
291
292
291
292
291
291
291
291
291
291
291
291
291
293
292
293
293
293
293
293
293
293
294
294
293
296
295
295
295
294
294
294
294
294
295
294
295
295
295
296
295
295
295
294
295
294
294
292
293
292
292
293
292
292
290
291
292
291
292
291
292
291
291
291
291
290
290
289
289
289
289
290
288
288
288
288
288
287
287
287
286
287
286
287
286
286
287
286
288
288
289
290
290
291
291
291
292
292
293
293
293
293
293
293
293
293
294
292
293
293
292
292
292
292
292
292
291
292
292
292
292
292
292
292
292
292
295
292
293
293
293
293
293
293
293
293
293
293
293
293
294
294
294
294
294
293
292
293
293
293
293
293
293
293
293
293
294
294
295
294
295
296
295
296
296
296
297
298
298
298
299
299
300
300
300
301
301
301
301
301
300
300
300
300
301
300
299
298
297
296
295
294
293
291
290
289
287
285
284
284
283
283
282
282
282
282
285
284
285
285
286
287
288
288
290
291
291
292
293
293
294
293
294
294
294
294
295
294
295
295
295
295
296
296
297
297
297
298
298
297
298
298
298
298
298
298
298
298
298
296
298
297
297
296
296
296
296
295
295
295
294
294
293
294
293
293
293
293
293
293
293
293
293
292
292
292
292
291
291
292
291
291
291
290
290
289
290
290
290
290
290
290
290
291
293
294
295
297
298
299
301
302
303
305
305
306
308
307
307
307
306
305
304
302
302
299
298
297
295
294
293
291
290
289
288
285
285
283
282
282
282
280
281
280
280
280
280
282
283
283
284
285
285
287
287
288
289
290
291
291
290
291
291
290
292
291
292
292
293
292
292
293
291
292
291
290
289
288
287
287
285
285
285
285
285
285
285
286
286
286
288
287
289
289
289
290
291
290
291
290
292
292
292
291
291
292
293
293
294
295
296
298
299
299
301
303
305
307
308
309
309
309
308
309
308
306
306
305
304
302
301
299
298
297
296
295
295
294
294
294
294
294
294
294
294
295
294
294
295
294
294
293
293
292
292
291
290
288
287
287
286
286
284
285
284
285
284
285
285
287
287
287
288
290
291
292
293
293
292
292
293
293
292
293
294
294
294
294
295
295
295
296
296
297
297
295
297
297
298
298
298
298
298
297
297
298
297
297
297
297
297
297
297
297
297
297
296
297
297
297
297
297
297
297
297
297
296
296
295
294
295
295
294
295
296
296
296
296
296
296
297
297
297
298
298
299
299
300
300
300
300
301
301
302
302
302
302
303
300
302
302
301
301
300
299
301
300
299
298
298
297
297
297
296
296
296
296
297
296
296
295
294
294
293
292
291
292
292
290
289
287
288
287
287
286
285
285
285
285
283
285
284
286
285
285
288
286
286
286
286
286
286
287
287
287
287
288
288
288
289
289
289
289
290
289
289
290
289
290
291
291
291
290
291
292
291
292
292
293
293
293
293
293
293
293
293
294
293
293
293
294
293
293
293
293
293
292
292
292
291
291
290
291
290
290
290
289
290
289
290
290
290
290
290
290
290
290
291
291
291
292
292
293
294
293
294
294
294
293
294
294
294
293
294
292
292
292
291
291
290
289
289
287
287
287
287
286
286
287
286
287
288
287
288
287
287
287
286
287
286
286
286
286
287
287
287
288
288
289
289
289
290
291
291
291
292
292
292
293
293
293
294
294
294
294
294
294
294
294
295
294
295
297
296
295
297
296
296
295
295
296
296
295
294
295
295
295
295
295
295
295
295
296
295
294
294
296
295
295
295
295
296
296
296
297
297
297
298
298
299
299
299
300
301
301
301
302
304
303
303
303
303
302
302
302
302
302
301
301
301
300
299
299
297
297
297
296
295
294
293
293
293
291
292
293
294
293
293
293
292
293
294
294
294
294
294
294
293
293
292
294
295
294
293
294
294
294
293
293
293
294
294
292
292
292
292
292
292
292
292
291
291
292
292
291
291
291
291
291
292
292
292
292
292
292
292
293
293
293
293
293
293
294
293
292
293
293
293
293
293
294
293
293
294
293
293
293
294
293
293
292
293
293
292
293
292
293
292
292
292
292
295
292
292
292
292
291
291
293
292
291
291
290
290
289
289
289
288
288
288
288
287
288
288
290
290
292
292
292
292
293
293
294
295
296
295
296
296
296
296
296
297
297
297
298
297
297
298
297
297
297
295
295
294
292
293
290
291
291
290
289
289
288
288
288
288
288
287
286
286
285
285
284
284
284
283
284
284
284
284
285
285
285
286
287
288
288
288
287
289
290
290
290
290
290
289
290
290
290
289
289
289
289
288
288
289
288
288
289
289
289
290
290
291
290
291
291
292
292
292
291
292
292
291
292
291
292
292
293
293
294
294
294
295
296
295
296
296
297
297
298
298
298
299
299
299
299
299
298
298
299
298
298
297
298
296
297
296
295
296
295
295
295
294
294
294
294
293
293
292
292
291
291
291
290
290
289
289
288
287
286
286
285
286
286
287
287
288
289
290
290
291
292
293
293
293
294
293
293
294
293
294
294
294
294
295
295
295
295
297
297
298
299
299
299
300
301
301
301
301
301
301
301
302
300
301
301
301
300
301
300
300
301
301
301
301
302
303
303
304
304
304
305
305
306
307
307
309
309
309
309
311
310
311
310
311
311
311
311
311
311
309
309
309
308
307
307
307
306
305
304
304
304
303
302
302
302
300
300
298
297
296
295
295
294
293
292
291
290
290
289
290
289
288
287
287
287
287
286
285
284
284
284
283
281
281
280
279
279
279
279
280
280
281
281
281
282
282
283
283
285
285
285
284
285
285
284
284
284
283
283
282
283
282
282
282
283
284
285
286
287
288
288
290
291
291
293
294
294
296
296
297
297
298
297
298
296
296
296
296
295
295
295
295
294
294
294
294
294
294
294
294
294
293
293
293
292
291
290
290
289
289
288
287
286
286
286
285
285
284
284
283
284
284
284
284
285
284
284
284
284
284
285
284
284
285
285
285
285
286
286
286
286
286
287
286
287
286
287
287
287
288
288
288
289
288
288
288
287
287
289
289
289
288
288
289
288
288
288
288
288
288
288
288
288
288
288
288
288
288
288
288
288
289
289
289
288
289
289
288
289
289
290
290
289
288
291
290
290
291
291
290
291
291
291
291
291
291
291
291
291
290
291
291
291
291
291
291
291
291
291
290
290
290
292
290
291
291
291
291
291
291
291
292
291
292
291
292
292
292
293
292
292
292
293
292
292
293
292
292
292
292
292
292
292
292
292
292
293
294
292
293
293
294
293
293
294
294
293
294
294
294
294
293
294
294
294
294
293
293
296
293
294
293
293
293
294
294
294
294
295
293
295
294
293
293
293
293
293
293
293
293
293
293
295
293
293
293
293
293
294
293
293
293
293
293
293
292
292
292
292
290
291
291
291
291
291
292
292
292
292
292
291
292
292
292
291
293
292
292
292
292
292","
309
308
308
308
309
308
308
308
308
308
308
308
308
308
308
308
308
308
308
308
308
308
308
308
308
308
308
308
308
308
307
308
308
308
308
308
307
308
307
307
308
308
308
308
308
308
308
308
308
308
308
308
308
308
308
307
308
307
308
308
308
307
308
307
307
307
307
307
308
307
308
308
307
307
307
307
307
308
307
307
307
307
307
307
307
307
307
307
307
307
307
307
306
307
307
307
307
307
307
307
307
307
307
308
307
307
307
307
307
307
308
307
307
307
307
307
307
307
307
307
307
307
307
307
307
307
307
307
307
307
307
307
307
307
307
307
307
307
307
307
307
307
307
307
307
307
307
307
307
307
307
307
307
307
307
308
307
307
307
308
308
308
307
308
308
308
308
308
308
308
308
308
308
308
308
308
308
308
308
308
308
308
308
308
309
308
308
308
308
308
308
307
308
308
308
308
308
308
308
308
308
308
308
308
308
308
308
308
307
308
308
308
307
307
308
307
307
308
308
308
307
308
307
308
307
308
308
308
308
308
308
308
308
308
308
308
308
308
308
308
308
308
308
308
308
308
308
308
308
308
308
308
308
307
308
308
308
308
308
307
307
308
308
308
308
308
308
308
308
308
308
308
308
309
308
309
308
308
308
308
308
308
308
309
308
308
308
308
308
308
308
308
308
308
308
308
308
308
308
308
308
308
308
308
308
308
308
308
308
308
308
308
308
308
308
308
308
308
308
307
308
307
308
308
308
308
308
308
308
308
308
308
308
308
308
308
308
308
308
308
308
308
308
308
308
308
308
308
307
307
307
308
307
308
307
308
307
307
307
307
307
307
307
308
307
307
307
307
307
307
307
308
308
307
308
307
307
307
308
308
307
307
307
307
307
307
307
307
307
307
307
307
307
307
307
307
307
307
307
307
307
307
307
307
307
308
307
307
307
307
307
307
307
307
307
307
307
308
307
307
307
307
307
308
307
307
307
307
307
307
307
307
307
307
307
307
307
307
307
307
307
307
307
307
307
307
307
307
307
307
308
307
309
309
310
310
310
310
310
309
310
309
309
309
309
310
309
309
310
310
310
310
310
310
309
310
310
309
309
309
309
310
309
310
309
310
309
309
309
309
309
309
309
309
309
309
309
309
309
309
309
309
309
309
309
309
309
309
309
309
309
309
310
309
309
308
309
308
309
308
309
308
308
308
309
309
309
308
309
308
309
309
309
309
308
308
309
309
308
308
308
308
308
308
309
308
308
308
308
308
308
308
308
308
308
308
308
308
308
308
308
308
308
308
308
308
308
308
308
308
308
308
308
308
308
308
308
308
308
308
308
308
308
308
308
307
308
308
308
308
308
308
308
308
308
308
308
308
308
308
308
308
308
308
308
308
308
308
308
308
308
308
308
308
308
308
308
309
308
308
308
308
308
308
308
308
308
309
308
308
308
309
308
308
308
308
308
308
309
308
308
308
308
309
309
308
309
309
309
308
309
309
309
308
309
308
309
309
309
309
309
309
309
309
308
308
308
308
308
308
308
309
308
308
308
308
308
308
308
308
308
309
308
309
308
309
308
308
308
308
308
308
308
308
308
308
308
308
308
308
308
308
308
308
308
308
308
307
308
308
308
308
307
307
308
308
308
307
308
307
308
308
308
308
308
308
308
308
308
308
308
308
308
308
308
308
308
308
308
308
308
308
308
308
308
308
308
308
308
308
308
309
308
308
308
308
308
308
308
308
308
308
308
309
308
309
308
308
309
309
309
308
309
309
308
308
308
308
308
308
308
308
308
308
308
307
308
308
308
308
308
308
308
308
309
308
309
308
309
309
309
309
309
309
309
309
309
309
309
309
309
309
308
309
309
309
308
309
308
308
308
308
308
308
308
308
308
308
308
308
308
308
308
308
308
309
308
308
308
308
308
308
308
309
309
308
309
308
309
308
309
308
309
308
308
308
308
308
308
307
307
308
308
307
307
307
307
308
307
307
307
307
307
307
307
307
308
308
308
307
307
308
307
308
308
308
308
308
308
308
308
308
308
308
308
308
308
308
308
308
308
308
308
308
308
308
308
308
308
307
307
307
307
306
307
306
306
306
307
306
306
306
307
306
306
306
306
306
307
307
307
307
307
307
307
307
307
307
307
307
307
307
307
307
308
308
308
308
308
308
307
308
307
308
308
308
308
309
308
308
308
309
308
309
308
309
309
309
309
309
309
309
309
309
310
309
309
309
309
309
310
309
309
309
309
308
309
308
308
308
308
308
308
308
309
308
308
308
308
309
308
309
309
308
309
308
309
308
309
308
309
308
308
308
308
308
308
309
308
309
308
308
308
308
308
309
308
309
308
308
308
308
308
308
308
308
308
308
308
308
308
309
309
309
309
308
309
308
309
308
309
309
309
308
309
309
309
308
309
309
309
309
309
309
309
308
309
309
309
309
309
308
308
308
308
308
308
308
308
308
308
309
308
308
308
308
308
308
308
308
308
308
308
308
308
308
308
308
308
308
308
308
308
308
308
308
308
308
308
308
308
308
308
308
309
308
308
308
308
308
308
308
308
308
308
308
308
307
308
307
308
307
308
307
308
308
307
308
308
308
308
308
308
307
307
308
307
308
308
308
307
308
308
308
308
308
308
308
308
308
308
308
308
308
308
308
308
308
308
308
308
308
308
308
308
308
309
308
309
308
308
308
309
308
308
308
309
308
309
308
309
308
309
308
309
308
308
308
308
308
308
308
308
308
307
308
307
307
307
308
307
308
307
308
307
308
307
308
307
308
307
307
307
307
307
307
307
308
307
308
307
307
307
307
307
307
308
308
307
308
308
308
308
307
308
307
308
307
308
307
308
307
308
308
308
307
307
307
308
307
308
307
308
307
308
308
307
308
307
308
307
308
307
308
308
308
308
307
307
308
308
308
307
308
307
308
308
308
308
308
307
308
308
308
308
308
307
308
308
308
308
308
308
307
308
307
308
308
308
307
308
307
308
307
308
307
308
307
308
307
308
307
308
307
308
307
308
307
308
307
308
307
308
308
308
308
307
308
307
308
308
308
307
307
307
308
307
308
307
308
307
308
307
308
307
307
307
308
307
308
307
308
307
308
307
307
308
307
308
307
308
307
308
308
308
308
307
307
307
307
308
307
307
307
307
307
307
307
307
307
307
307
307
307
308
307
308
307
307
308
307
307
307
308
307
307
307
307
307
307
307
307
307
308
307
308
307
307
307
307
307
308
307
307
307
308
307
307
307
307
307
307
308
307
307
307
307
307
308
307
308
307
308
307
308
307
308
307
308
307
308
307
308
307
308
307
308
307
308
307
308
307
308
308
307
308
308
308
307
307
307
308
307
308
308
308
307
308
307
308
307
308
307
308
308
308
307
308
308
308
308
308
308
309
308
308
308
308
308
308
308
308
308
308
308
308
308
308
308
308
308
308
308
308
308
308
308
308
309
308
309
309
309
308
309
309
309
309
309
308
309
309
309
309
309
309
308
309
309
309
308
309
308
309
308
309
308
309
308
309
308
308
308
308
308
308
308
308
308
308
308
308
308
308
308
308
308
308
308
308
308
308
309
308
308
308
309
308
309
308
309
308
309
308
309
308
309
309
309
308
308
308
308
308
308
308
308
308
308
309
308
308
308
308
308
309
308
308
308
308
308
309
308
309
308
308
308
308
308
308
308
308
308
308
308
308
308
308
308
308
308
308
308
308
308
308
308
308
308
308
308
308
308
308
309
308
308
308
309
309
310
309
310
309
310
309
310
309
310
310
311
309
309
311
311
311
310
312
311
311
311
311
311
311
310
310
308
309
309
309
306
308
305
305
304
304
304
305
304
303
302
303
302
303
302
303
302
302
302
302
302
302
302
302
302
302
302
302
302
301
302
302
303
302
303
301
303
302
302
302
302
302
303
302
302
302
302
302
302
302
303
302
302
302
302
302
302
302
302
302
302
303
302
302
302
302
301
302
302
302
301
302
301
302
301
302
301
302
302
302
302
302
302
302
302
302
302
302
302
302
302
302
303
302
302
302
302
302
302
301
302
301
302
301
302
302
302
302
302
302
302
302
303
302
302
302
302
302
302
303
303
303
303
304
304
305
305
306
306
308
307
309
309
310
310
312
312
313
313
314
313
314
314
315
314
314
314
313
312
312
310
310
309
308
307
305
305
304
302
300
299
296
296
295
294
292
292
291
291
290
290
290
290
290
291
291
291
291
292
292
293
294
296
297
298
300
302
304
306
308
310
311
312
314
315
316
316
317
316
317
316
317
315
315
314
314
312
312
311
310
309
308
307
306
304
303
302
301
300
299
298
297
296
295
295
295
296
296
296
296
298
298
299
299
301
302
303
302
304
303
304
304
304
303
303
302
302
302
301
300
299
299
298
297
295
295
294
294
294
294
293
293
292
293
292
293
293
294
294
295
295
296
296
298
298
300
301
302
302
302
303
303
304
304
304
304
304
304
305
304
305
304
305
304
304
303
303
302
302
301
301
300
299
299
299
297
298
297
297
296
297
296
297
296
297
297
297
297
297
298","
272
271
272
273
274
276
277
278
278
278
278
278
278
277
276
275
274
272
269
257
240
225
214
205
198
194
191
189
189
189
190
192
194
198
201
204
207
211
215
218
222
225
229
232
235
239
242
245
248
251
254
257
259
262
264
267
270
272
274
277
279
281
284
286
289
291
294
296
299
302
304
307
309
311
313
314
316
317
319
321
322
323
324
325
326
328
329
330
331
332
334
335
336
336
337
338
339
340
340
341
342
342
342
342
343
342
343
343
343
343
343
343
343
342
343
343
343
342
342
342
342
342
341
341
341
341
341
340
340
341
341
341
341
341
341
341
341
341
340
340
340
340
339
338
338
338
337
337
337
337
337
336
336
336
336
336
337
336
336
336
336
335
335
335
335
335
335
335
335
335
335
335
335
335
335
335
335
335
335
334
334
334
333
333
332
332
332
332
331
332
331
330
330
330
329
329
328
328
327
326
325
324
323
322
321
320
319
318
316
316
315
314
313
313
313
313
313
312
312
312
311
310
310
309
309
308
308
307
306
306
305
304
303
302
300
299
298
297
296
295
294
294
294
293
293
293
293
293
293
294
294
294
295
295
296
296
297
297
297
297
298
298
297
298
298
298
299
299
300
300
300
300
300
301
301
301
301
301
301
301
302
302
302
302
303
303
303
303
304
304
304
305
305
305
305
306
306
306
307
307
307
307
307
307
307
307
307
307
307
308
307
308
308
308
309
309
309
309
308
309
309
309
309
309
309
310
309
310
311
311
311
311
311
311
311
312
311
311
311
310
311
310
311
311
311
311
311
311
311
312
312
312
312
312
313
313
313
313
313
313
313
313
313
313
312
312
312
312
313
312
312
312
312
313
312
313
313
313
313
314
313
314
314
314
314
314
314
314
314
314
314
314
314
315
315
315
315
315
317
316
317
317
317
317
317
317
317
316
317
317
317
316
316
316
316
316
316
316
315
315
315
315
314
314
314
314
314
314
313
313
313
313
313
312
312
312
312
312
311
311
311
311
311
311
311
310
310
310
310
310
310
310
310
310
310
310
309
309
310
309
310
309
309
308
308
308
308
307
307
307
307
306
306
305
305
305
305
305
305
304
304
304
304
303
303
303
303
303
302
303
302
302
302
302
301
301
300
300
300
300
300
300
299
300
300
300
300
299
299
299
300
299
300
300
300
300
299
299
299
299
299
299
299
299
299
298
298
298
298
297
297
297
296
295
296
295
295
295
296
296
296
295
295
295
295
294
294
294
294
294
294
294
294
294
293
293
294
293
294
294
293
293
293
293
293
293
293
292
292
292
292
292
292
292
291
291
291
291
291
291
291
291
290
290
290
289
289
289
288
288
288
288
288
288
288
288
289
288
289
289
289
289
290
290
289
289
290
289
289
289
289
290
289
289
289
289
288
288
288
288
287
287
286
286
285
285
285
285
285
286
286
287
288
288
289
290
291
292
293
294
294
296
296
297
298
299
300
301
302
302
303
304
305
305
306
307
308
308
309
309
310
310
311
312
312
313
314
315
315
316
317
317
317
318
318
318
318
319
319
319
319
320
320
320
320
321
321
321
321
322
322
322
322
322
323
323
323
324
324
324
324
323
323
324
323
324
324
324
324
324
325
324
325
325
325
325
326
325
325
325
326
326
326
326
326
325
325
325
325
324
324
324
324
324
324
324
324
324
324
324
324
324
323
324
323
323
323
323
322
322
322
322
322
322
321
321
321
320
320
320
320
319
319
320
320
320
320
320
320
319
320
320
320
319
320
320
320
320
320
320
320
319
319
319
319
318
318
317
317
317
317
317
316
317
316
316
316
315
315
315
315
315
315
315
315
315
314
315
314
314
314
314
314
314
313
314
313
314
314
314
314
314
314
314
314
313
313
313
313
312
312
312
313
313
313
313
313
313
314
313
314
314
314
314
314
314
314
314
313
313
313
313
313
313
313
313
313
313
313
312
312
311
311
311
311
310
310
310
309
310
310
310
309
309
309
309
308
308
308
307
307
307
306
306
306
306
305
305
305
304
304
304
304
303
303
303
303
303
303
303
303
303
303
302
303
302
302
302
301
301
301
300
301
300
300
300
300
299
299
299
298
298
298
298
297
298
298
298
297
297
297
297
297
296
296
296
296
296
296
295
295
295
295
295
295
295
294
294
295
295
295
294
294
294
294
294
294
294
294
294
293
293
293
293
294
293
293
293
293
293
293
293
294
294
294
294
294
294
294
294
295
295
295
296
295
295
296
296
297
297
297
298
298
298
298
298
298
299
299
299
300
300
300
301
301
301
301
301
302
302
302
302
302
303
303
303
304
304
304
304
305
305
305
305
306
306
306
306
307
307
307
307
307
306
306
306
307
307
307
307
308
307
307
308
307
308
308
308
308
308
308
308
308
308
308
308
308
308
308
308
308
309
308
308
308
309
309
308
309
309
309
309
308
308
308
309
308
309
308
308
308
308
308
308
308
308
308
308
308
308
308
308
309
309
309
308
309
309
308
309
309
309
309
309
309
309
309
309
309
309
309
310
310
310
310
309
309
309
309
309
309
309
309
309
309
309
309
309
309
309
310
310
310
309
309
309
309
309
309
309
309
310
310
309
309
309
309
309
309
309
309
309
309
309
309
309
309
309
310
310
309
309
309
309
309
309
309
308
308
308
308
308
307
308
307
308
307
308
307
308
307
308
308
308
308
308
308
308
308
308
308
308
308
308
308
308
308
308
308
308
308
307
308
307
308
307
308
307
308
307
308
307
307
306
306
306
306
305
305
305
304
304
304
303
303
303
302
302
302
302
302
302
301
302
301
302
301
301
300
301
300
300
300
300
299
299
298
299
298
299
299
299
299
300
300
300
300
300
300
300
300
300
300
301
300
301
301
301
300
300
300
301
300
300
299
299
298
298
297
297
297
296
296
296
295
295
296
296
296
296
298
298
299
299
300
299
300
300
301
301
301
301
301
301
301
301
301
301
301
301
301
301
301
302
301
301
302
303
303
303
304
305
305
306
307
307
307
308
308
309
309
310
309
310
309
309
309
309
308
308
307
307
307
307
307
308
308
308
310
309
310
310
311
312
313
312
313
313
313
313
313
313
313
313
313
312
312
311
311
310
311
310
309
309
309
309
309
309
308
309
308
308
308
308
308
307
307
308
307
308
308
308
308
309
309
309
309
310
310
310
310
311
311
311
312
312
312
312
313
313
314
314
315
314
315
315
316
315
316
316
316
315
316
315
315
315
315
315
316
315
315
314
314
314
314
314
313
313
313
313
313
312
312
312
312
312
312
312
311
312
311
311
311
312
311
312
311
312
312
312
312
313
313
313
313
313
312
312
312
312
312
311
311
310
310
309
309
308
308
308
308
307
307
306
306
306
306
305
305
305
305
305
305
305
305
305
305
305
305
305
305
306
306
306
306
307
306
306
306
306
306
306
305
306
305
306
305
306
305
306
305
306
305
305
305
305
305
305
305
305
305
306
306
305
306
305
305
305
305
305
305
305
305
305
305
306
306
307
309
311
313
314
314
314
312
311
310
311
310
311
311
311
310
310
309
307
307
305
304
303
302
301
300
300
300
300
300
301
301
302
302
302
303
303
303
303
303
304
304
303
304
304
303
303
303
303
303
303
303
303
303
303
303
303
302
303
302
303
302
303
302
303
303
303
303
304
303
304
303
304
304
304
304
304
305
304
305
305
305
305
305
305
305
305
305
305
306
305
305
305
306
305
306
306
306
306
306
306
306
306
306
306
306
307
307
307
306
306
306
306
306
306
306
306
306
306
306
306
305
306
305
306
305
305
305
305
305
305
305
305
305
306
305
305
305
305
305
305
306
305
305
305
305
305
305
305
305
305
305
305
306
305
305
305
305
305
306
306
306
305
306
305
305
304
304
304
304
304
304
304
304
304
304
304
304
305
304
304
304
305
304
304
305
305
305
306
306
306
306
306
306
306
306
307
307
307
307
307
307
307
307
307
306
307
307
307
307
307
306
306
306
306
307
306
306
306
307
307
307
307
307
307
306
306
306
306
306
306
306
306
306
306
306
306
306
306
306
306
306
305
305
305
304
304
304
304
304
304
304
305
305
305
305
305
305
306
306
306
306
306
305
305
305
305
305
304
304
304
304
304
303
304
303
303
303
303
303
303
303
302
302
302
302
302
302
303
303
302
303
303
304
304
304
304
304
305
304
305
304
304
304
305
305
305
305
305
305
306
306
306
306
306
306
307
307
306
306
307
306
307
306
307
306
307
306
306
306
306
306
307
306
307
307
307
307
307
306
307
307
306
307
307
307
307
307
306
307
307
307
306
307
306
306
306
306
307
307
307
306
307
307
307
307
307
306
307
307
308
307
308
308
308
308
308
308
308
308
308
308
308
308
308
308
308
308
308
308
308
309
308
308
308
308
308
309
308
308
308
308
308
308
308
308
308
308
308
308
308
308
308
308
308
308
308
307
307
307
307
306
307
306
306
306
306
306
306
306
306
306
306
306
306
306
306
306
306
306
306
306
306
306
306
305
305
306
305
306
306
305
305","
327
315
330
313
328
310
328
310
328
310
330
311
336
319
342
327
347
332
348
339
349
345
348
352
349
360
350
365
348
388
381
423
400
440
407
449
415
461
426
474
440
483
449
484
448
471
437
449
420
424
404
399
390
376
377
355
364
334
352
316
342
302
336
292
333
288
329
285
330
287
328
284
326
286
320
284
309
279
300
279
293
283
288
286
281
289
275
293
271
298
270
303
266
303
261
300
252
291
244
284
239
278
235
271
235
270
241
269
244
264
251
266
259
264
272
271
286
276
300
280
310
281
316
278
317
273
313
265
309
263
304
259
300
259
298
259
293
263
296
277
303
289
305
301
304
308
301
313
297
319
294
323
290
326
285
327
282
328
281
330
280
326
275
319
275
318
278
310
276
303
277
295
279
286
279
275
279
266
281
261
288
261
297
260
301
258
303
256
304
255
304
257
306
259
305
261
301
265
302
272
303
283
307
296
309
307
307
315
306
323
301
327
294
327
285
326
276
319
250
279
200
229
153
190
124
164
108
154
107
153
117
156
136
169
158
180
180
189
201
201
228
222
267
256
318
317
398
385
457
430
491
454
506
463
509
464
501
455
483
437
456
417
426
399
405
387
384
376
362
368
344
357
324
348
308
342
297
336
288
330
278
328
278
325
277
323
278
320
278
315
279
309
283
303
284
297
290
293
296
290
302
286
308
281
310
277
312
272
313
270
313
268
312
267
309
265
305
264
301
264
295
266
294
271
292
278
290
283
285
286
277
288
272
293
267
296
264
303
268
312
274
322
280
328
284
331
289
334
294
334
299
333
302
331
307
327
312
321
315
314
317
307
320
301
324
297
328
294
330
291
333
290
335
290
334
290
333
289
329
288
327
291
324
294
320
296
314
300
308
304
303
309
298
312
291
315
287
318
286
323
285
327
282
327
283
327
282
329
288
336
297
340
306
342
313
341
320
337
325
332
328
323
327
312
326
304
327
295
325
287
325
283
327
280
324
277
322
277
323
279
322
284
324
290
321
294
318
298
313
302
307
305
299
306
290
306
284
309
277
310
272
313
271
320
279
331
288
339
296
345
304
347
301
334
293
320
289
312
292
306
299
306
309
305
314
297
315
291
320
290
326
292
337
296
342
296
341
296
344
296
337
291
329
284
317
281
309
280
299
280
291
282
285
289
284
300
287
310
287
317
285
321
284
330
289
336
293
341
298
346
303
349
309
353
319
358
329
359
336
356
340
350
343
342
344
332
344
323
343
311
337
293
323
272
309
258
301
249
293
244
288
240
286
242
284
246
283
251
281
258
279
265
275
272
273
283
277
300
281
313
285
324
289
336
292
343
293
347
298
351
301
351
302
349
301
346
306
341
308
336
309
326
309
310
299
290
294
277
294
268
294
258
295
252
298
249
298
251
309
260
315
266
318
268
316
269
314
282
323
297
328
311
333
324
337
343
342
358
345
369
344
377
343
379
338
380
333
380
327
370
314
360
304
346
290
323
270
301
258
284
251
272
251
264
255
258
262
255
271
259
288
266
303
268
313
274
322
285
344
301
360
316
371
327
377
333
379
342
379
345
373
345
366
346
353
344
338
338
322
331
304
322
283
309
266
302
252
293
239
281
226
272
221
268
220
266
224
269
231
273
247
281
263
290
282
298
302
309
322
314
339
321
351
324
363
325
368
325
374
325
375
323
370
314
359
309
354
306
345
299
328
288
307
275
287
268
271
265
257
262
245
261
236
266
233
270
231
277
232
281
234
286
238
292
245
297
251
301
259
305
269
310
282
314
293
315
304
317
320
317
327
313
333
310
341
304
345
304
352
304
357
305
360
307
362
309
362
309
361
322
368
331
363
331
350
323
334
318
319
316
306
315
297
317
292
322
288
327
287
329
286
335
290
339
293
343
297
344
301
342
299
334
299
322
290
305
284
290
279
277
278
268
280
263
286
264
296
267
307
272
315
274
319
276
320
277
321
278
319
276
314
274
308
276
301
277
295
280
288
284
284
288
280
293
275
296
270
299
265
301
265
302
261
306
267
316
277
323
282
324
286
324
291
323
294
320
297
313
299
307
302
300
305
293
308
288
312
284
315
279
318
276
320
275
323
280
333
296
346
308
353
316
354
318
348
316
339
317
331
318
321
318
313
319
304
321
299
325
295
331
299
342
302
347
303
348
300
344
298
340
293
332
288
323
284
313
287
307
287
307
296
305
311
310
329
321
347
330
364
338
377
343
385
346
390
344
385
332
368
312
346
292
323
273
303
265
293
264
284
265
277
269
275
278
275
287
276
297
280
309
284
319
287
325
287
328
286
328
286
327
286
324
286
322
285
317
282
305
274
290
268
280
270
276
278
277
292
285
309
296
327
305
340
309
346
310
350
310
348
307
345
304
340
303
338
303
334
300
324
296
314
292
301
290
291
289
283
291
278
296
275
301
273
307
273
308
271
313
276
318
280
324
288
330
298
338
307
341
314
338
318
337
323
332
324
322
323
315
320
301
312
284
302
267
292
255
284
246
282
246
286
250
291
256
296
262
299
268
300
273
300
280
300
287
298
294
298
302
296
304
291
305
283
307
279
309
277
312
277
315
281
321
287
328
296
336
306
343
315
346
322
345
326
345
332
341
335
335
337
328
337
322
336
314
332
304
330
296
326
288
320
281
316
277
312
277
313
280
312
283
312
288
312
293
310
297
306
301
303
306
300
309
296
314
292
314
288
315
285
316
284
319
284
318
283
316
282
314
280
309
279
303
276
294
273
285
271
276
270
268
269
263
276
264
280
260
286
265
294
268
301
272
306
274
304
270
298
263
291
262
292
263
275
249
261
243
253
242
250
246
250
254
253
263
257
272
260
278
264
290
270
299
277
304
280
309
283
311
287
314
290
316
298
324
308
328
313
326
316
322
317
319
321
318
325
316
329
315
331
313
332
309
330
303
327
299
324
296
322
294
320
294
319
298
320
302
320
306
322
315
323
321
326
328
325
333
323
335
320
336
316
336
314
336
311
334
308
333
306
332
305
331
307
331
307
326
305
321
306
319
310
316
311
313
317
311
320
307
319
299
316
293
313
286
307
278
301
273
298
275
303
283
307
292
314
288
255
218
177
149
141
160
191
212
233
253
267
273
274
302
311
325
329
286
261
216
201
168
163
142
149
142
161
217
253
303
330
378
404
443
456
476
481
488
490
486
487
477
479
463
467
445
452
427
438
410
423
395
411
383
400
373
391
366
384
360
372
349
358
341
344
331
332
320
319
312
308
304
297
273
253
231
214
232
233
264
259
289
281
311
300
326
307
332
313
334
315
336
320
338
327
341
332
339
332
334
329
328
329
323
330
319
331
315
330
311
329
310
330
309
330
307
328
305
325
303
321
299
314
293
305
288
296
283
286
276
275
272
268
271
264
273
265
280
273
275
261
283
275
304
293
321
308
334
318
343
324
344
327
346
330
344
332
342
332
336
329
329
327
322
325
317
324
310
320
302
317
297
314
292
311
288
307
282
301
274
291
267
287
265
282
266
282
271
283
276
283
282
285
288
286
294
291
305
296
313
299
319
302
322
302
326
304
326
302
323
300
320
297
314
290
303
282
293
278
287
277
283
280
281
285
283
291
284
295
284
299
284
303
285
307
288
310
290
313
291
312
288
311
295
317
299
319
304
318
307
316
309
314
310
312
313
309
317
308
317
306
320
299
320
303
323
303
324
301
325
304
326
304
326
306
325
308
323
309
322
312
322
317
324
323
339
308
278
235
213
177
167
140
140
118
125
108
120
117
134
140
161
169
190
200
220
232
248
261
273
284
293
302
305
314
313
321
318
329
324
336
331
344
340
356
353
368
364
375
368
377
371
379
372
376
371
371
367
365
363
359
361
359
367
365
371
372
380
377
376
377
376
388
388
410
406
438
430
458
443
466
444
463
437
452
425
437
412
422
400
407
391
396
383
383
375
370
369
358
361
346
354
334
346
321
337
311
329
303
320
317
277
257
205
187
165
158
148
149
147
152
155
160
167
172
182
184
195
196
209
209
222
220
237
235
250
248
264
261
274
273
280
287
296
307
311
328
333
359
364
391
391
410
411
424
423
425
424
420
421
409
412
395
399
377
386
363
378
353
371
343
363
336
357
329
351
325
344
320
338
318
332
316
326
314
320
312
313
311
308
310
303
311
298
307
290
305
286
304
283
303
279
299
275
297
274
294
273
293
274
291
274
289
276
288
279
286
282
284
284
282
288
281
290
279
293
278
296
278
298
279
301
280
303
280
304
282
304
284
306
287
306
289
305
291
302
292
299
294
296
297
296
301
295
306
296
310
297
315
298
317
297
317
305
331
314
336
316
335
310
327
304
319
302
316
302
314
306
315
312
315
314
311
314
306
316
306
319
305
321
303
321
301
321
299
320
297
319
295
316
295
315
295
312
296
310
298
306
297
301
297
299
298
296
300
293
303
292
305
290
306
290
307
289
308
289
309
290
309
291
310
293
310
294
309
296
307
298
307
301
305
303
303
305
301
306
298
307
295
308
294
308
292
307","285
282
284
281
284
281
283
281
283
280
282
279
279
277
278
277
278
277
277
277
277
278
277
278
277
278
277
279
278
280
278
281
279
282
280
283
280
283
280
282
280
282
281
282
280
281
280
281
281
281
281
280
278
275
273
268
267
264
264
262
262
257
255
251
251
248
250
248
252
251
254
255
258
259
262
263
266
268
270
271
274
275
276
279
279
282
282
285
284
288
287
291
289
293
290
295
291
297
293
298
295
300
297
302
299
303
300
303
302
304
303
304
304
304
305
305
307
305
307
305
307
305
307
305
307
304
307
304
307
303
306
303
305
303
305
303
304
303
304
303
304
304
304
304
304
305
304
305
303
305
303
305
302
304
301
304
301
304
301
304
301
304
301
304
301
304
302
303
302
304
303
303
304
304
304
303
304
303
304
303
305
304
307
305
308
306
309
307
310
307
309
306
309
305
307
304
305
302
303
301
301
299
299
298
298
298
297
298
297
299
298
300
297
300
298
301
298
301
298
301
298
301
298
301
299
301
299
301
299
301
300
301
300
300
300
299
299
297
297
295
296
293
293
288
286
279
275
268
266
260
260
256
257
255
257
255
257
257
261
262
266
269
273
276
279
283
285
289
291
295
296
300
300
304
303
307
306
310
309
313
311
314
313
316
315
318
317
319
318
320
319
320
320
320
320
320
321
321
323
322
323
323
324
323
325
323
324
322
323
321
322
320
321
319
320
319
320
319
320
317
318
316
316
315
314
313
312
311
310
310
308
308
306
306
304
305
302
303
300
302
300
301
299
301
299
300
299
300
298
299
298
299
298
298
298
298
298
297
297
297
298
297
298
298
299
297
299
298
299
298
299
297
299
297
299
298
300
298
299
298
300
299
300
299
300
299
299
299
299
299
299
299
299
299
298
300
298
300
298
300
299
301
299
300
299
300
299
301
300
301
300
301
301
302
301
302
301
302
303
302
303
303
304
304
305
304
306
305
306
305
307
305
308
306
308
307
309
307
309
307
309
307
309
308
309
308
309
309
309
309
309
309
309
309
308
309
308
310
308
310
309
312
310
312
310
312
311
313
312
314
311
313
312
314
313
314
313
314
313
314
314
314
314
314
314
314
314
313
315
313
315
313
315
313
315
314
316
314
316
314
317
315
317
315
317
316
318
317
318
317
318
317
318
318
317
318
317
318
317
318
316
317
315
317
316
318
316
318
316
318
316
318
316
317
316
317
315
316
315
316
315
315
314
314
314
313
314
313
314
314
314
313
314
312
314
312
313
311
313
311
313
311
312
310
311
310
311
310
311
310
311
310
310
310
310
310
309
310
310
311
310
311
310
312
310
312
310
313
310
312
311
313
311
313
311
312
311
312
311
312
311
312
311
311
311
311
311
311
311
310
311
310
311
310
312
310
312
311
313
311
313
311
313
311
313
311
313
311
312
311
313
311
312
312
312
312
311
312
311
311
309
310
309
311
309
311
309
310
307
309
307
309
307
309
307
309
307
308
307
308
307
309
307
309
307
308
308
307
307
307
307
307
307
306
307
305
307
305
307
306
308
306
308
306
308
306
308
306
309
307
308
307
308
307
308
307
308
308
308
308
307
308
307
308
307
309
308
309
308
309
308
309
307
309
307
309
307
308
306
308
306
307
305
307
306
307
306
306
306
306
306
305
306
304
305
304
306
304
305
303
305
303
305
303
306
304
305
304
306
304
306
305
307
306
307
306
308
307
307
307
307
307
307
308
306
307
306
307
306
307
305
307
305
307
305
307
305
307
305
307
305
307
305
306
304
306
305
305
305
305
306
305
305
305
306
304
306
305
307
305
307
306
307
306
307
306
308
305
307
305
307
305
306
305
306
306
307
306
307
306
307
307
307
308
307
308
307
308
307
308
307
308
306
307
306
307
306
308
305
308
305
308
306
308
306
307
306
307
306
307
306
307
307
307
307
307
307
306
307
306
307
305
306
304
305
303
304
302
303
301
302
300
302
300
301
299
300
299
300
298
299
298
297
296
296
296
295
295
294
295
293
294
293
294
292
294
292
294
292
293
291
293
290
291
289
291
289
290
289
290
289
289
288
288
288
288
288
287
288
287
288
287
288
287
288
287
289
288
290
288
290
288
290
289
291
290
291
291
292
291
293
292
293
293
294
294
295
296
296
297
298
299
298
300
299
301
300
302
300
302
301
303
301
303
302
304
302
305
304
305
304
305
305
306
305
306
305
305
305
305
305
304
305
304
306
304
306
304
306
305
306
305
307
306
308
307
309
308
310
309
310
310
311
310
311
311
312
312
312
312
312
313
312
313
312
313
312
314
312
314
313
314
312
314
313
314
313
314
313
314
313
314
313
314
314
315
314
315
315
315
315
315
316
315
316
315
316
315
317
316
318
315
318
315
317
315
317
315
316
315
317
315
316
315
317
316
317
316
317
317
317
317
318
318
318
319
318
320
318
319
318
319
317
319
316
319
316
319
316
318
316
318
316
317
315
316
314
315
314
314
313
313
313
313
313
312
313
311
312
310
312
310
311
309
311
308
310
307
309
306
308
305
306
304
305
303
304
302
302
301
301
301
301
301
300
301
300
301
299
301
300
302
301
304
302
304
302
305
303
306
304
307
305
308
307
311
310
312
312
314
314
315
316
317
316
317
317
316
316
315
315
314
315
314
316
315
317
314
316
313
317
312
316
312
315
311
315
311
314
311
313
310
311
309
309
307
306
306
304
304
300
302
298
301
296
300
294
299
294
300
295
301
296
302
297
304
299
305
301
305
302
305
303
306
304
305
304
303
301
299
299
294
296
290
295
289
297
292
301
294
304
298
311
304
318
313
327
321
333
326
336
328
335
328
333
327
328
323
323
321
319
319
316
319
314
320
314
322
313
322
312
321
311
320
309
318
306
315
304
312
301
307
298
303
296
301
296
298
295
296
294
292
292
287
290
283
288
280
286
277
284
274
281
272
281
271
280
271
281
273
282
276
284
279
287
284
290
288
292
292
294
296
297
300
300
304
302
308
304
310
305
311
306
313
307
314
307
314
307
314
306
312
304
309
301
306
301
304
300
302
300
301
301
299
301
298
302
297
303
297
304
297
305
297
306
297
306
297
307
298
307
299
307
300
308
303
310
307
313
311
316
316
318
319
319
322
320
324
319
325
319
326
318
326
318
326
317
326
317
326
317
326
317
325
317
323
316
322
317
320
316
317
315
315
315
313
314
311
314
309
314
307
313
305
312
303
311
302
311
300
309
299
308
299
307
298
306
299
305
300
304
300
302
300
301
300
298
300
296
300
295
300
293
300
293
300
293
301
293
302
294
304
296
306
298
306
298
305
298
303
296
299
295
298
296
297
297
295
297
293
296
291
296
290
296
289
296
289
296
288
296
288
296
291
298
293
299
295
301
297
302
299
302
300
302
301
302
302
302
303
301
303
301
304
301
305
301
305
300
304
299
304
298
304
299
305
300
306
301
306
303
306
303
305
302
304
302
303
304
304
305
304
308
306
310
306
311
306
312
307
313
307
313
307
313
306
314
307
314
308
314
309
314
309
313
310
313
310
311
311
309
310
307
310
306
310
305
310
304
310
303
310
302
309
302
309
301
308
301
307
300
305
298
301
296
298
294
294
291
291
289
288
287
285
287
284
288
285
290
286
292
287
293
288
295
290
297
292
300
295
303
299
305
302
307
305
309
308
310
310
311
312
312
313
312
314
311
315
311
315
310
315
309
314
308
314
307
313
305
312
304
310
303
307
301
304
298
301
297
297
295
294
293
292
292
290
291
287
289
284
288
282
287
280
286
279
286
278
286
278
286
277
285
277
284
277
283
278
282
278
281
279
280
281
280
282
281
284
282
287
282
289
283
291
285
293
286
295
288
297
290
298
291
299
292
300
294
300
296
301
298
301
300
301
301
301
303
301
305
301
306
302
308
303
310
303
311
304
313
305
314
306
315
307
315
309
316
309
315
310
315
312
315
313
315
315
315
317
315
318
314
319
314
320
314
321
313
322
313
322
314
323
314
323
315
324
316
323
317
323
318
323
319
322
320
321
321
321
322
320
323
320
324
319
324
317
323
316
323
315
323
315
323
315
323
315
322
315
321
315
321
316
320
316
319
317
318
317
317
318
315
318
314
318
313
319
313
320
312
320
312
320
312
320
312
320
312
320
313
320
313
319
313
318
314
316
314
315
314
315
316
314
316
313
317
312
318
312
319
312
320
312
320
312
319
311
319
311
319
312
318
312
317
312
316
312
315
313
314
313
313
314
311
314
311
315
310
315
309
316
309
316
309
316
308
316
308
315
308
316
309
316
309
315
309
313
309
312
310
312
312
312
313
310
313
309
313
309
314
309
316
308
316
308
316
308
316
308
316
308
316
307
314
308
313
308
312
308
310
308
309
309
308
310
308
310
307
312
307
312
307
313
306
313
305
314
306
314
306
314
306
313
306
312
305
312
305
310
306
309
307
308
306
306
307
305
308
305
308
304
309
303
309
303
310
302
310
301
309
302
310
303
310
302
309
303
309
303
308
304","302
302
302
302
303
302
302
302
302
302
302
302
302
303
303
303
303
303
302
303
303
303
303
303
303
303
303
303
303
303
302
303
302
303
302
303
302
302
302
302
302
302
302
301
302
302
302
302
302
302
302
302
302
302
303
302
303
303
303
303
303
303
303
303
304
303
303
303
303
303
303
303
303
303
303
303
304
303
304
303
304
303
303
303
303
303
303
303
303
303
303
303
303
303
302
303
303
303
303
303
303
303
303
303
303
303
303
303
303
303
303
303
303
303
303
303
303
303
303
303
303
303
303
303
303
302
303
302
303
302
303
303
303
302
303
302
303
303
303
303
303
303
303
303
302
303
303
303
303
303
303
303
303
303
303
303
303
303
303
303
303
303
303
304
303
303
303
304
303
303
303
304
303
303
303
303
303
303
303
304
303
303
303
303
303
302
303
302
303
302
303
303
303
303
303
303
304
303
304
303
304
303
304
304
304
304
304
304
304
304
304
304
304
304
304
304
304
304
304
304
304
304
303
304
304
304
303
303
303
303
303
303
303
303
303
304
304
304
304
304
304
304
304
304
304
304
304
304
304
304
304
304
304
304
304
303
303
303
304
303
304
304
304
303
304
303
304
303
304
304
304
304
304
304
304
304
303
303
303
303
303
303
303
303
303
303
303
303
303
303
303
304
303
304
303
304
303
304
304
304
303
303
303
303
303
303
303
303
303
303
303
303
303
303
303
303
303
303
303
303
303
303
303
303
303
303
303
303
303
303
303
303
303
303
303
303
303
303
303
302
302
303
302
303
302
303
303
303
303
303
302
303
303
303
303
304
303
304
303
303
303
303
303
303
303
304
303
303
303
303
303
303
303
303
303
303
303
303
303
303
303
303
303
303
304
303
304
303
304
303
304
303
304
303
304
303
304
303
304
303
304
303
304
303
303
303
303
303
303
303
303
303
303
304
303
304
303
304
303
304
304
304
303
303
303
303
303
303
303
303
303
303
303
303
303
303
303
303
303
303
303
303
303
303
302
302
303
303
303
303
303
302
303
302
303
302
303
302
303
302
303
303
303
302
303
303
303
302
303
303
303
303
303
303
303
303
303
303
303
303
303
303
303
303
302
303
303
303
302
303
302
303
303
303
303
303
303
303
303
303
303
304
303
303
303
303
303
303
303
303
303
303
303
303
304
303
303
303
303
303
303
302
303
303
303
303
303
303
304
303
304
303
304
303
303
303
304
303
303
303
303
304
304
304
303
304
303
304
303
305
304
304
303
304
304
304
303
304
303
304
304
304
304
304
304
304
304
304
304
304
305
304
304
304
305
304
304
304
304
304
304
303
304
303
304
303
304
303
304
303
304
304
305
304
304
304
304
304
304
304
304
304
304
304
304
304
304
304
304
304
304
304
303
304
303
304
304
304
304
304
304
304
304
305
304
305
305
305
305
305
305
305
305
305
305
305
305
305
305
305
305
304
305
304
305
304
305
304
305
304
305
304
305
304
305
304
305
304
304
304
304
304
304
304
304
304
304
304
304
303
304
304
304
304
303
304
304
304
304
304
304
304
304
305
304
305
304
305
304
305
304
305
304
305
304
304
304
304
305
304
305
304
304
304
304
304
304
304
304
304
304
304
304
303
304
303
304
303
304
303
304
303
304
303
304
303
304
304
304
304
304
304
304
304
304
304
304
304
304
304
303
304
303
304
303
304
303
304
303
304
304
304
303
304
303
304
303
304
304
304
304
304
304
304
304
304
304
304
304
304
304
304
304
304
304
304
304
304
304
304
305
304
305
304
305
304
305
304
305
304
305
304
304
304
304
304
304
304
304
304
304
304
303
304
303
304
303
304
303
304
304
304
304
304
304
304
303
304
303
304
303
304
303
304
303
304
304
303
303
303
303
303
303
303
303
303
304
303
303
303
304
303
304
303
304
303
304
303
304
303
303
303
304
303
304
304
304
304
304
304
303
304
303
303
303
304
303
304
303
303
303
303
303
304
303
303
303
304
303
303
303
304
303
303
303
303
303
303
303
303
303
303
303
303
303
303
303
303
303
303
303
303
304
303
304
303
303
303
303
303
303
303
303
303
303
303
303
303
303
303
303
303
303
303
303
303
303
303
303
304
304
304
303
304
303
304
304
304
303
304
303
304
303
304
303
304
304
304
303
304
303
303
303
303
303
303
303
303
303
303
304
303
303
303
303
303
303
303
304
303
304
303
304
303
304
303
303
303
303
303
303
303
303
303
303
303
303
303
303
303
303
304
303
304
303
304
304
304
303
304
303
304
303
304
303
304
303
304
303
304
304
304
304
304
304
304
304
304
304
304
303
303
303
303
304
303
303
303
303
303
304
303
304
304
304
304
304
304
304
304
304
304
304
304
304
304
304
303
303
303
303
304
303
304
303
304
303
303
303
304
303
303
303
304
303
303
303
303
303
303
303
303
303
303
303
303
303
303
303
303
303
303
303
303
303
303
303
303
304
303
303
303
304
303
304
304
304
304
304
304
304
304
304
304
304
304
304
304
304
304
304
303
303
304
303
303
303
303
303
303
303
303
303
303
303
303
303
303
303
303
303
303
303
303
303
304
303
304
303
304
304
304
304
304
304
304
304
304
304
303
304
304
304
304
304
303
304
303
304
304
304
304
304
303
304
304
304
303
304
303
304
303
304
304
304
304
303
304
304
304
304
304
304
304
304
304
303
304
303
304
303
304
304
304
303
304
304
304
304
304
304
304
304
304
304
304
304
304
304
304
304
304
304
304
304
304
304
304
304
304
304
304
304
304
304
304
304
304
304
304
304
303
304
304
304
304
304
304
304
303
303
303
303
303
303
303
303
303
302
303
302
303
302
303
303
304
303
303
303
304
303
304
304
304
303
304
303
303
303
303
303
303
304
303
304
303
304
303
304
303
304
303
304
303
304
303
304
303
304
303
304
303
304
303
304
304
304
303
304
303
303
303
304
303
303
303
303
303
303
304
303
304
303
304
303
304
303
304
304
304
303
304
304
304
304
304
304
304
304
304
304
304
304
304
304
304
304
304
304
304
304
303
304
303
303
303
303
303
303
303
303
302
303
303
303
303
303
303
303
303
303
303
304
303
304
304
303
304
303
304
303
304
303
304
304
304
304
304
304
304
303
304
303
304
304
304
303
304
303
304
303
304
304
304
304
304
303
303
304
304
303
303
303
303
304
303
304
303
303
303
304
303
304
303
304
303
304
303
303
303
304
303
304
303
304
303
303
303
303
303
304
304
304
304
303
304
304
304
303
304
303
304
303
304
303
304
303
304
303
304
303
304
303
304
303
303
303
304
303
304
304
304
303
304
303
303
304
304
304
303
304
303
304
303
304
303
304
303
304
303
304
303
304
304
304
303
304
304
304
304
304
304
304
304
304
304
304
304
304
304
303
304
303
304
303
304
303
304
303
304
303
304
303
304
303
304
304
304
304
304
304
304
304
304
304
304
304
304
303
303
304
304
304
303
304
303
304
303
304
303
304
303
304
303
304
303
304
303
304
303
304
304
304
303
304
304
304
304
304
304
304
304
304
304
304
304
304
304
304
304
303
304
304
304
303
304
303
304
303
304
303
304
304
304
304
304
304
304
304
304
304
304
304
304
304
304
304
304
304
303
304
304
304
304
304
304
304
303
304
303
304
303
304
303
304
304
304
304
304
304
304
304
304
304
304
304
304
304
304
304
304
304
304
304
304
304
303
304
303
304
303
303
303
303
303
303
303
303
303
303
303
303
303
303
303
303
303
303
303
303
304
303
304
304
304
303
304
303
304
303
304
303
304
303
304
304
304
304
304
304
304
304
304
304
304
304
304
304
304
304
304
304
303
304
304
304
303
304
303
304
304
304
304
304
304
304
304
304
304
304
304
304
304
304
304
304
304
304
304
303
304
304
304
304
304
304
304
304
304
304
304
304
304
304
304
303
304
303
303
303
303
303
303
303
303
303
303
303
303
303
303
303
303
303
303
303
303
303
303
303
303
303
303
303
303
304
303
303
303
303
303
304
303
304
303
304
303
304
303
304
303
303
303
303
303
303
303
303
304
304
304
304
304
304
304
304
304
304
304
304
305
304
304
303
305
303
304
303
304
303
303
303
303
303
303
303
303
303
304
304
304
304
304
304
304
304
304
304
304
304
304
304
303
304
303
304
303
304
303
304
303
304
303
304
304
304
303
303
304
303
303
303
303
303
303
303
303
302
303
302
303
302
303
303
303
302
304
303
303
303
304
303
303
303
303
303
303
303
303
303
303
303
303
303
303
304
303
303
303
304
303
303
303
303
302
304
303
304
303
304
303
303
303
304
303
303
303
303
303
303
303
303
303
303
303
303
303
303
303
303
303
303
303
302
303
302
303
302
303
303
303
303
303
303
303
303
303
303
303
303
303
304
304
304
304
304
304
304
304
304
303
304
303
304
303
304
303
304
303
304
303
304
303
304
303
304
303
304
303
303
303
303
303
303
303
303
303
303
303
303
304
303
304
303
304
303
304
303
304
303
304
303
305
303
304
304
304
303
304
303","302
303
300
303
301
303
302
303
301
303
302
303
301
303
300
304
300
303
300
303
300
304
301
304
301
303
301
303
301
303
301
303
302
303
302
303
303
302
303
301
303
302
303
302
304
301
304
301
304
302
305
302
305
301
305
301
305
303
305
303
305
303
305
304
305
303
304
303
303
303
302
303
302
303
301
303
301
303
301
303
301
304
301
304
301
304
301
304
301
304
301
304
301
304
301
303
301
303
301
302
301
302
301
301
302
301
302
300
302
300
302
300
303
300
303
300
303
300
304
300
304
300
304
301
304
302
303
301
303
302
303
301
303
302
302
302
301
302
300
302
300
302
301
302
300
303
300
303
300
304
301
304
300
304
301
304
301
304
301
303
301
303
301
303
300
302
301
301
301
300
301
300
301
299
302
300
302
300
303
300
303
300
303
299
303
299
303
300
304
300
303
301
303
301
304
301
303
301
302
301
301
302
301
302
301
302
300
302
300
302
299
303
299
303
299
303
300
304
300
304
300
303
300
303
300
303
300
303
301
302
301
302
302
301
302
301
302
301
303
300
302
300
303
300
303
299
303
300
303
300
304
300
304
301
304
301
304
301
303
300
303
301
303
302
302
302
303
302
302
303
301
303
301
303
300
304
300
303
300
304
301
304
301
304
301
304
301
304
301
304
301
303
301
303
301
302
301
302
301
301
301
301
302
300
302
300
302
300
303
300
303
299
303
300
303
301
304
300
304
301
304
301
304
302
304
302
304
302
304
302
303
303
303
303
303
304
303
304
302
304
302
305
302
305
302
305
302
306
302
305
302
305
302
305
302
305
302
305
302
304
303
305
304
304
303
303
304
303
304
303
305
302
304
302
305
301
305
301
304
301
304
301
304
300
304
301
304
301
304
300
303
301
302
301
303
301
302
302
302
302
301
302
301
302
300
302
300
303
300
303
300
303
300
304
300
304
300
304
301
304
301
304
301
304
302
303
302
303
302
303
303
303
302
302
303
302
303
301
304
301
304
301
305
301
304
301
304
301
305
301
305
301
305
301
304
301
304
301
303
302
303
302
303
303
303
303
302
303
301
303
301
304
300
304
300
304
301
303
300
304
300
304
301
304
300
303
301
303
301
303
301
303
301
303
302
303
302
302
302
301
302
301
303
300
302
300
303
300
303
300
303
300
304
300
303
299
304
300
304
300
304
301
304
301
304
302
304
303
303
304
303
304
303
304
302
304
302
304
301
304
301
304
301
304
300
305
300
304
300
304
301
304
300
304
301
304
301
303
301
303
301
302
302
301
300
300
301
300
302
300
302
299
302
299
302
299
303
299
303
299
303
299
303
299
303
299
303
300
302
300
302
300
302
301
302
301
301
301
301
302
301
302
300
302
300
302
299
302
299
302
299
302
299
302
298
303
299
303
299
302
300
302
299
302
300
302
301
302
302
303
303
303
303
302
304
301
304
302
304
302
304
300
304
300
304
300
304
300
304
301
304
301
304
301
304
301
303
302
304
302
303
303
303
303
303
303
302
304
302
304
302
304
302
305
302
305
303
306
302
306
302
306
302
306
302
305
302
305
302
304
301
303
302
302
302
302
302
301
302
301
302
300
302
300
303
300
303
300
303
299
303
299
302
298
302
298
302
298
302
299
301
298
301
299
301
300
301
301
301
301
300
301
300
302
300
302
300
303
300
303
300
304
300
304
300
304
300
304
300
304
300
304
301
304
302
305
302
304
302
304
303
303
303
303
304
302
304
302
304
301
304
301
304
301
304
300
305
301
305
301
305
301
304
301
304
301
304
301
303
301
302
301
302
301
302
301
301
301
301
302
300
302
300
302
300
303
300
303
300
304
300
304
300
304
300
304
300
304
301
304
301
304
301
303
302
303
302
303
302
303
303
302
302
301
302
300
301
299
302
299
302
299
303
299
304
299
304
300
304
300
304
301
304
301
304
302
303
302
303
302
302
302
302
302
301
303
301
303
301
303
301
304
300
304
300
304
300
303
300
304
300
304
300
304
301
304
300
304
301
303
302
303
302
303
303
303
303
303
304
302
303
302
304
301
304
300
304
300
304
300
304
300
304
300
304
300
303
300
303
300
302
301
302
301
302
301
302
302
301
302
302
302
301
303
301
303
301
304
300
304
300
304
300
304
300
304
300
305
301
305
301
305
301
304
302
304
302
303
302
303
302
302
302
301
303
301
303
301
303
300
304
301
304
300
304
301
304
300
304
301
305
301
305
302
304
301
304
302
304
302
304
302
303
303
303
303
302
303
301
303
301
303
301
303
300
304
300
304
300
304
300
305
301
305
301
305
302
305
302
305
302
304
302
303
302
303
302
303
302
302
302
301
302
300
303
300
303
301
304
301
304
300
304
300
304
300
304
300
303
300
303
301
303
301
303
302
303
302
303
301
302
302
302
303
301
303
300
303
300
303
300
302
298
302
298
303
299
303
299
303
299
303
300
303
300
303
300
303
301
303
301
302
302
302
302
302
303
301
302
300
303
300
303
300
304
301
304
300
304
300
304
300
304
300
304
300
303
300
303
300
302
301
302
301
302
301
301
301
301
301
300
302
300
302
300
303
300
304
300
304
300
304
300
304
300
304
300
304
300
303
300
303
301
303
301
303
301
302
301
302
302
301
303
301
302
301
302
300
302
300
302
299
302
302
289
307
291
312
290
315
288
317
285
319
284
320
284
320
284
320
285
319
287
318
289
316
291
315
295
311
299
307
302
304
305
300
308
296
311
293
313
290
316
286
317
284
319
283
320
282
320
284
319
284
319
286
317
288
315
291
314
293
310
297
307
301
304
305
301
308
297
311
293
313
290
316
287
318
285
320
283
320
284
320
284
320
284
319
286
317
288
315
290
313
293
309
296
306
300
302
304
299
307
295
310
292
313
289
315
286
318
284
319
283
319
283
319
283
318
283
318
285
317
287
315
290
313
294
310
297
306
301
303
305
299
308
296
311
292
314
289
316
286
318
284
319
283
320
283
320
283
320
284
318
286
317
289
315
291
313
294
309
297
306
301
302
305
299
307
295
311
291
313
288
316
286
318
284
320
283
320
283
320
283
320
284
319
285
316
288
314
290
312
292
309
295
306
298
302
303
298
306
293
309
289
312
286
314
284
317
282
318
282
319
282
319
282
319
284
317
285
316
288
314
290
311
293
307
297
304
300
301
304
297
307
293
311
290
314
288
316
287
317
286
319
286
318
287
318
288
317
290
316
292
315
295
312
298
310
301
307
304
303
306
300
309
297
311
294
313
291
315
290
317
288
318
287
319
287
319
288
318
289
317
291
316
293
314
295
312
298
309
301
307
304
303
307
300
309
297
312
294
314
291
315
289
317
287
318
287
319
288
319
288
318
289
318
291
316
293
315
296
312
298
310
301
306
304
303
307
299
310
296
312
293
314
290
316
289
319
287
320
286
321
286
320
287
320
288
318
289
317
291
314
292
311
296
308
298
304
300
301
304
298
307
294
311
291
313
289
316
287
318
286
319
285
319
285
320
286
319
287
318
289
316
291
314
294
312
296
309
300
306
303
303
307
299
310
296
313
293
315
290
318
288
320
287
321
286
322
286
321
286
320
287
319
289
318
292
316
291
315
295
313
299
309
303
305
306
301
309
297
312
293
315
290
317
287
319
284
320
284
321
283
322
284
321
284
320
286
318
289
315
292
312
296
308
299
304
304
300
307
297
310
294
313
291
315
289
317
287
319
285
319
285
319
284
319
285
318
286
317
289
316
292
314
294
311
297
309
301
305
305
302
308
298
311
295
313
292
315
288
317
286
319
284
319
284
320
285
319
285
318
286
316
288
314
290
311
293
309
296
305
299
302
303
299
306
295
309
292
311
289
314
287
316
285
318
284
319
283
319
284
319
285
318
287
316
288
314
290
312
293
309
297
306
301
302
304
299
307
295
310
293
313
289
315
287
317
285
319
284
320
284
319
284
319
286
319
288
317
291
316
293
314
296
311
299
308
304
304
307
300
310
298
313
295
316
292
318
289
319
287
321
287
322
286
322
286
321
288
320
289
318
291
316
293
313
296
310
300
307
304
303
307
300
311
297
313
295
316
292
318
289
319
287
321
286
322
286
321
286
320
288
319
290
318
292
317
295
314
298
311
302
308
306
304
309
301
311
297
314
294
316
291
318
288
319
286
320
285
320
284
320
286
320
287
318
289
317
291
315
294
312
297
309
301
306
304
303
308
299
311
297
315
294
317
291
319
289
321
287
322
286
322
286
321
287
320
288
319
290
317
292
315
295
313
298
310
302
306
306
304
309
300
313
297
316
294
318
292
320
289
321
287
322
287
322
287
322
288
321
289
320
291
318
293
316
297
313
299
310
303
306
306
303
309
299
312
295
314
292
316
289
318
287
319
285
320
285
320
285
320
286
319
287
317
289
316
292
313
295
311
298
308
302
305
306
302
309
298
312
295
315
292
317
289
318
288
320
286
321
285
320
285
319
286
318
288
317
289
315
291
312
294
310
298
306
301
303
305
299
308
296
310
292
313
290
316
288","360
313
359
314
357
313
352
312
343
310
332
306
319
300
303
292
285
283
267
272
245
261
227
252
212
244
202
239
194
236
191
235
189
235
192
237
197
240
205
244
216
248
228
252
239
256
252
258
263
261
275
263
286
265
295
266
302
266
308
268
315
272
322
277
326
281
330
285
332
291
331
295
329
301
326
304
321
308
316
313
312
317
307
323
304
328
303
335
301
341
303
347
305
353
308
357
312
360
316
361
319
361
323
360
329
359
337
358
345
357
351
354
360
353
364
350
372
349
379
348
384
347
387
346
388
346
391
344
389
344
384
343
378
342
373
342
368
346
362
344
354
345
346
345
338
345
329
344
322
344
313
342
307
341
300
336
294
332
289
327
283
320
277
313
275
305
271
296
270
289
269
281
270
274
272
269
274
264
277
261
281
258
284
256
287
256
290
255
292
256
294
256
294
257
294
260
292
262
290
266
287
269
285
272
281
276
278
281
276
287
275
292
274
297
273
302
272
305
271
307
271
308
270
306
267
300
261
292
257
283
251
273
249
266
248
259
250
256
255
254
261
254
269
254
278
257
287
263
296
265
303
270
308
272
311
273
309
270
304
268
298
265
290
264
286
267
283
272
283
281
285
290
287
300
289
308
289
311
284
310
277
305
268
298
258
290
250
283
243
276
239
269
236
263
237
259
240
256
243
255
249
255
257
256
265
258
274
260
283
262
291
265
299
270
306
274
313
280
320
287
326
294
331
301
335
309
338
318
341
326
342
334
343
342
344
350
344
357
344
363
344
368
342
371
341
374
341
375
339
375
340
376
340
376
342
375
344
373
347
371
351
368
355
366
360
365
367
364
371
362
377
361
382
360
386
358
389
358
391
357
390
352
386
349
382
345
376
342
369
336
359
333
349
328
339
324
328
320
318
317
307
314
297
311
288
308
279
306
272
302
265
299
260
296
257
293
254
290
254
287
253
283
255
279
258
276
261
273
265
269
268
264
271
260
273
256
277
253
281
253
287
256
292
259
298
262
301
265
301
265
299
265
296
266
291
265
284
263
275
262
267
261
258
260
251
260
243
259
235
257
228
255
223
254
219
253
218
254
219
256
223
260
229
263
236
267
246
272
256
276
267
281
279
287
291
291
302
295
313
298
322
301
330
303
335
304
340
306
344
309
347
311
348
313
348
315
347
318
344
320
341
322
336
324
330
326
325
328
320
329
314
330
308
331
303
330
298
330
295
329
291
328
290
326
289
325
289
323
290
322
294
327
281
320
286
320
295
319
304
318
313
314
320
311
329
309
338
310
347
311
356
314
365
317
371
321
375
322
377
326
379
331
380
336
378
339
373
343
367
345
359
347
350
348
340
348
329
348
319
347
310
346
302
344
295
343
289
340
286
338
282
334
280
329
279
324
280
318
281
310
282
302
284
293
286
285
289
277
290
268
291
259
291
251
289
244
289
240
289
237
289
237
290
238
289
240
287
244
285
249
281
253
279
260
276
267
274
276
273
285
272
294
272
302
271
309
269
315
268
313
264
313
261
313
260
309
258
305
259
299
256
292
256
285
259
281
265
278
274
277
284
279
298
284
312
289
327
297
341
304
353
310
362
315
368
319
371
322
372
323
369
326
366
328
361
330
356
333
348
334
340
337
332
338
323
340
315
342
308
342
300
342
295
341
290
339
286
337
283
335
282
332
283
328
284
323
286
317
288
310
291
304
295
297
298
290
301
283
305
278
307
272
310
269
312
265
314
264
315
263
315
262
314
264
313
266
310
269
307
274
303
278
298
284
294
289
290
296
285
301
280
306
275
311
272
315
269
318
267
320
266
321
266
321
267
321
269
319
271
315
275
310
277
302
278
293
279
283
279
271
279
261
280
251
280
244
282
241
277
236
274
235
274
237
276
240
278
247
280
252
281
258
280
264
279
270
277
275
274
280
272
284
269
288
266
292
264
296
264
300
264
302
265
305
267
307
270
309
274
310
278
310
282
308
287
305
291
303
297
301
302
298
307
296
312
293
315
290
319
289
322
287
324
286
325
287
327
289
328
291
330
296
331
301
331
306
330
311
329
317
326
321
322
325
318
328
314
332
311
335
309
339
308
342
307
345
308
348
311
352
316
356
323
362
332
366
341
369
349
371
357
372
364
369
367
364
368
358
367
346
360
331
350
313
332
289
308
260
283
236
261
216
243
200
227
188
215
182
207
180
201
181
198
187
198
195
201
206
205
218
211
231
219
245
228
260
238
275
249
289
260
301
271
314
282
325
295
335
308
345
320
352
332
357
344
362
355
366
366
370
377
373
386
376
394
377
402
379
409
382
415
383
419
384
421
385
420
384
418
383
415
382
410
381
404
380
396
378
387
375
376
370
365
366
353
361
342
356
332
353
323
349
314
344
306
339
300
334
294
329
290
323
287
318
285
313
285
308
286
303
287
298
288
294
291
287
293
283
295
277
297
273
299
269
300
266
301
265
300
263
300
264
299
264
299
266
299
269
299
274
299
280
299
287
298
293
298
300
297
307
296
313
296
318
294
323
294
327
294
330
295
333
296
333
296
333
297
332
299
331
300
325
300
318
298
310
295
300
292
289
288
277
284
265
279
257
277
248
275
242
272
235
266
227
258
218
250
211
241
206
234
202
227
200
221
200
216
202
213
206
210
211
210
218
212
228
215
238
220
249
226
260
234
271
240
281
250
292
260
301
271
310
280
315
288
318
295
319
300
317
306
315
309
312
313
309
317
306
321
303
324
300
326
297
327
295
328
294
330
293
329
292
327
292
325
292
323
294
320
296
316
298
312
300
307
302
303
305
300
309
297
314
296
318
295
322
294
326
293
325
289
324
288
324
289
326
293
328
298
331
306
334
314
336
322
336
329
337
336
337
342
337
349
337
355
337
360
336
365
337
368
336
368
335
365
330
353
320
348
324
353
335
360
344
362
349
359
349
353
346
345
345
339
342
330
339
325
339
323
344
324
348
328
353
330
355
330
351
322
342
316
338
313
333
311
329
312
326
313
322
314
318
313
311
312
304
308
296
303
286
296
274
288
263
280
253
274
246
268
241
264
236
255
227
245
221
237
217
232
218
234
228
241
240
249
254
258
267
267
279
274
290
279
299
282
305
284
308
286
311
287
313
288
313
288
313
289
313
292
313
294
311
297
310
300
308
302
306
305
303
307
301
309
298
311
295
313
293
314
292
315
291
316
291
316
292
317
292
316
293
315
295
314
296
312
299
311
303
310
306
309
311
309
316
309
320
310
325
311
330
312
335
314
339
317
342
319
345
321
346
323
346
324
346
325
344
327
341
328
337
328
333
328
327
328
322
327
317
326
310
324
305
323
301
321
297
319
294
317
291
314
287
309
283
303
279
295
273
286
268
278
264
269
260
261
257
253
254
247
252
241
250
233
247
226
243
219
238
213
234
210
232
208
230
207
230
209
231
212
233
218
236
227
242
237
249
249
256
261
264
273
272
285
279
296
286
307
292
316
298
323
303
330
308
335
313
340
318
343
322
344
324
344
328
342
330
340
332
338
334
335
335
331
336
327
337
324
337
320
337
316
336
313
334
310
332
307
330
304
328
303
326
303
323
304
322
305
320
308
318
311
316
313
314
316
312
318
309
320
306
321
303
321
300
321
298
321
297
321
297
320
297
321
297
320
299
319
300
317
302
316
306
314
308
313
312
311
314
309
317
307
319
305
321
302
322
300
322
299
322
297
321
296
320
296
319
296
317
296
315
297
312
299
309
299
305
300
302
300
297
301
293
302
290
303
287
304
285
305
283
305
282
305
280
305
280
304
280
302
280
301
281
299
282
298
285
296
289
295
292
294
296
294
301
294
305
294
310
294
314
295
318
296
320
298
323
299
325
300
326
302
327
305
326
307
326
311
325
314
324
318
323
321
322
324
319
327
318
330
316
333
315
335
314
337
313
338
313
339
314
339
314
338
315
337
316
337
317
335
321
333
323
331
326
330
330
329
333
328
337
327
341
326
344
325
346
324
347
324
349
324
350
325
351
326
350
326
347
325
343
324
338
323
332
320
326
318
318
314
309
312
303
311
298
311
293
310
289
309
285
306
281
303
277
299
272
294
269
290
267
288
267
286
269
283
270
281
273
280
277
279
281
277
284
275
286
274
289
273
291
272
293
272
297
274
301
278
306
284
312
290
316
297
320
303
323
308
322
311
320
313
317
313
313
314
308
314
302
312
296
309
288
305
280
299
273
294
268
291
265
289
264
288
264
286
265
285
267
284
270
284
275
284
280
286
286
287
293
287
298
288
302
288
306
289
309
288
310
288
313
288
314
288
314
289
313
290
312
292
312
294
309
294
305
295
301
296
298
298
294
299
290
299
285
298
280
297
275
293
269
289
263
284
258
280
253
275
249
271
248
268
248
266
250
265
253
264
257
264
262
264
267
265
272
265
278
267
284
268
288
270
293
272
297
275
302
279
305
284
311
289
315
296
319
302
321
307
322
312
323
317
321
320
320
323
317
324
314
325
311
326
307
327
305
326
302
326
302
326
301","
302
297
300
299
299
300
297
301
296
303
295
304
294
306
292
305
290
305
289
305
289
305
290
305
290
305
291
305
293
305
293
304
295
302
296
302
298
299
299
297
300
295
301
294
302
292
304
291
304
291
305
290
306
290
306
290
306
290
307
291
306
292
305
293
304
294
302
295
301
296
299
297
298
299
296
301
294
302
293
303
293
305
292
306
291
306
290
305
289
305
289
304
289
304
290
304
291
303
292
302
294
301
296
299
298
299
299
297
301
295
302
292
303
292
303
290
304
290
305
290
306
290
306
290
306
291
306
292
306
292
305
293
303
294
302
297
301
298
299
299
297
300
295
301
293
301
291
302
290
304
289
304
289
304
289
304
289
305
289
304
290
304
290
303
291
303
294
301
295
301
296
299
298
297
299
296
301
294
302
293
303
291
305
290
305
290
306
290
306
290
306
290
306
290
306
292
305
293
305
294
303
296
303
301
304
300
298
298
294
297
291
299
290
300
289
300
287
301
288
302
287
304
288
305
288
304
289
304
289
304
292
303
293
303
295
302
297
300
299
299
299
298
301
296
302
294
304
293
305
292
306
291
306
291
306
290
306
291
306
291
306
291
305
293
304
294
303
294
303
296
300
297
299
299
297
300
295
301
294
302
293
303
291
304
290
305
290
305
290
305
290
306
290
305
290
305
291
304
292
303
293
301
295
301
296
299
298
297
299
296
300
294
301
292
303
291
304
290
304
289
304
289
305
289
305
289
305
290
305
291
304
291
304
293
302
295
301
296
299
297
298
299
296
300
295
301
293
302
291
304
291
304
290
305
290
305
290
305
290
306
290
305
291
304
292
304
293
303
294
302
295
300
296
298
298
297
299
295
302
293
302
292
304
291
304
291
305
290
305
289
306
290
305
289
305
291
305
291
304
293
303
293
302
294
301
296
299
298
297
300
295
301
294
302
292
303
291
304
291
305
290
306
289
306
289
305
290
306
290
305
291
304
292
303
293
303
295
301
296
300
298
297
299
296
300
295
301
293
303
291
304
291
305
290
305
290
306
290
306
290
306
290
306
291
305
291
304
292
303
294
301
296
300
297
298
298
297
299
295
301
293
302
292
304
291
304
290
305
290
305
289
306
290
305
290
306
290
305
291
304
292
303
294
301
296
301
297
299
298
297
299
296
301
294
302
292
303
291
304
290
304
290
304
290
306
290
306
289
306
290
305
290
305
291
304
293
302
295
301
296
298
297
298
299
296
300
294
301
293
303
292
303
290
304
289
305
289
305
289
305
289
305
290
305
290
305
292
304
293
303
295
301
295
300
298
298
299
297
300
296
301
294
303
293
304
291
305
290
305
290
306
289
306
290
306
290
305
290
305
291
304
292
303
294
302
295
300
296
299
298
298
299
296
301
294
302
293
304
291
305
291
305
290
305
290
306
290
306
289
306
290
305
291
305
292
303
293
302
295
301
296
299
298
299
300
297
301
296
302
294
304
292
305
292
305
291
306
290
306
290
307
290
307
290
306
291
305
292
304
292
302
294
301
295
300
297
298
298
297
299
295
301
293
302
292
303
291
304
290
305
289
305
289
306
289
306
289
306
290
305
292
305
292
304
293
303
295
300
296
299
297
297
299
296
301
294
302
292
303
291
304
291
305
290
305
290
306
289
306
290
306
290
306
291
305
292
304
293
303
294
302
296
300
297
298
299
297
300
295
302
294
303
292
304
291
305
290
305
290
306
289
306
290
305
290
306
290
305
291
304
292
303
294
302
295
300
296
299
299
298
299
296
301
294
303
292
303
292
304
291
305
290
305
289
306
289
307
290
306
290
305
291
305
292
304
293
303
294
301
296
299
297
298
299
296
300
294
301
293
302
291
303
290
304
290
305
289
305
289
305
289
306
289
305
290
305
291
304
292
303
294
302
295
300
297
298
298
297
299
295
301
294
302
292
304
291
305
290
305
290
306
290
306
289
306
289
306
290
306
291
305
292
304
293
302
295
301
296
300
297
298
299
296
300
294
301
293
304
292
305
291
305
290
306
289
306
289
306
290
306
289
305
290
305
291
304
293
303
294
301
296
300
297
298
298
296
299
295
301
293
302
292
303
291
304
290
305
289
305
289
306
289
305
289
305
290
305
291
304
292
303
294
303
295
301
296
299
298
297
300
296
300
295
302
293
303
292
304
290
305
289
306
290
306
289
306
289
306
290
306
290
306
291
304
292
303
293
302
295
300
297
298
299
297
299
295
301
293
302
292
304
291
304
290
306
289
306
290
306
290
306
289
306
290
305
291
305
292
304
293
303
296
301
296
299
298
297
299
296
300
294
302
292
303
291
304
291
306
290
305
289
306
290
306
290
306
289
306
290
305
291
304
292
303
294
301
295
300
297
298
297
296
299
294
301
292
302
291
303
290
304
290
306
289
305
289
306
289
306
289
306
290
306
291
305
292
304
294
303
296
302
297
300
298
298
299
296
302
295
303
294
304
293
305
291
306
291
307
290
307
290
308
290
308
291
307
291
306
292
305
293
303
294
301
295
300
297
298
299
297
300
297
302
294
303
292
304
290
304
289
304
288
304
287
304
286
304
287
303
286
303
287
301
288
300
289
298
291
297
293
296
294
294
296
293
298
291
300
290
301
289
302
288
304
288
304
287
304
288
305
288
305
288
305
289
304
290
303
292
302
293
301
295
300
297
298
298
296
300
294
301
293
303
292
304
291
306
290
307
290
306
290
307
290
308
290
307
290
306
291
306
293
304
294
304
295
301
298
300
299
299
301
296
302
295
304
294
305
293
306
292
307
291
308
291
308
291
309
291
309
291
308
293
307
293
305
294
304
295
302
297
300
298
299
299
297
300
295
302
293
303
291
305
291
305
290
306
289
307
289
307
290
307
290
306
290
306
292
306
294
304
295
303
295
301
297
299
298
298
300
296
302
294
303
292
304
292
305
290
305
289
305
289
307
289
308
289
307
289
306
291
305
292
304
292
302
294
302
296
299
298
298
300
297
301
295
302
294
304
292
305
291
307
290
307
290
307
289
308
289
308
291
307
292
306
292
305
294
304
294
303
295
301
297
299
299
297
300
295
302
294
303
292
304
290
306
289
306
289
306
288
307
289
306
289
306
289
305
290
304
291
303
292
302
294
300
296
298
297
297
299
295
301
293
302
291
304
290
304
290
306
289
306
289
307
288
307
289
307
290
307
290
306
292
304
293
302
293
300
295
299
297
297
298
295
300
294
301
292
302
290
304
289
304
288
305
287
305
287
306
287
305
288
304
289
304
290
302
291
301
293
299
295
298
296
296
298
295
300
293
301
292
303
290
304
289
305
289
305
289
307
288
307
289
307
289
307
290
306
291
305
292
304
294
303
295
301
296
299
299
298
300
295
301
293
302
292
304
290
305
289
306
289
307
288
307
288
306
288
306
288
306
290
305
291
304
293
303
294
301
296
299
297
297
299
296
300
294
302
292
304
291
305
289
306
289
306
288
307
288
306
288
307
289
306
290
306
290
304
292
303
294
301
295
300
297
298
299
296
300
294
301
292
303
291
304
290
305
289
306
289
306
288
307
289
307
289
306
290
305
291
304
292
302
294
300
296
299
298
297
299
296
300
295
302
293
303
292
304
290
306
291
306
289
306
289
306
289
307
290
307
290
305
291
305
292
305
293
303
295
302
297
300
299
298
300
296
302
294
303
293
303
291
304
290
306
289
307
288
306
288
307
289
307
290
306
289
306
290
305
291
303
293
301
294
299
295
297
296
295
298
293
300
292
301
290
303
289
303
288
304
288
306
288
306
288
306
288
306
290
305
290
304
292
304
294
302
294
300
297
299
298
297
301
295
302
294
303
292
305
291
305
290
306
290
307
289
307
289
307
290
306
290
305
291
304
293
303
294
301
296
299
298
298
299
297
301
296
302
294
304
293
305
291
306
291
307
290
307
290
308
290
308
290
307
291
306
292
305
293
305
295
303
296
301
298
300
299
298
301
296
303
294
304
293
305
292
306
291
306
290
307
290
307
290
307
291
307
291
307
290
307
292
306
293
305
295
303
297
302
298
300
300
298
301
296
303
294
304
292
305
291
306
290
307
289
307
289
307
288
305
289
305
290
307
291
305
292
304
293
302
295
301
297
299
298
297
300
295
301
293
303
292
304
290
305
289
305
288
306
288
307
288
307
288
307
289
306
290
305
292
304
294
303
294
301
296
299
298
297
299
296
301
294
303
291
304
291
305
290
305
289
305
288
304
288
305
286
305
287
305
290
305
291
305
292
304
295
302
297
301
298
298
299
296
301
294
303
292
303
291
303
290
304
288
306
289
307
290
307
290
307
291
307
291
307
292
305
294
304
295
302
296
300
297
298
299
296
300
295
302
293
303
290
303
289
303
289
304
288
304
289
305
290
304
291
304
291
303
293
302
294
301
296
300
298
299
299
297
300
296
302
294
302
293
303
292
305
290
304
289
305
289
305
291
306
291
306
292
305
292
306
291
305
292
304
294
303
297
302
298
300
299
298
301
296
302
294
303
293","
279
318
276
321
274
323
273
323
272
323
272
324
274
325
278
319
279
316
285
314
290
307
296
305
297
296
302
293
307
287
312
283
317
283
320
277
322
275
323
274
326
274
326
274
325
276
323
278
319
281
316
285
312
289
307
294
301
298
296
302
291
306
286
311
282
314
277
316
273
318
270
319
268
319
268
319
268
317
269
316
272
314
275
310
279
306
284
301
289
297
293
291
298
286
303
281
307
276
310
273
314
270
316
268
318
268
319
268
320
269
319
271
319
275
315
278
313
282
308
287
304
294
300
297
295
303
290
306
284
311
279
314
275
318
276
321
272
325
274
325
273
325
274
325
277
324
280
320
284
316
287
313
292
307
296
302
301
298
306
292
309
287
313
282
317
279
319
275
321
273
323
273
324
272
324
273
323
275
321
278
319
282
315
286
311
291
306
296
301
300
296
305
291
310
287
314
282
317
278
321
277
324
274
325
273
325
274
326
275
325
278
325
280
320
283
317
288
313
294
305
295
299
299
295
305
289
310
289
314
282
318
279
320
276
323
275
325
277
326
275
325
275
325
278
323
281
321
286
317
289
314
293
308
299
303
303
297
306
291
310
286
315
282
317
278
320
274
322
272
323
272
323
272
323
273
322
276
320
278
318
283
313
287
308
292
304
295
298
300
294
304
288
309
283
313
279
317
276
319
274
322
272
322
272
323
272
324
273
322
275
319
279
316
283
312
286
308
290
300
292
296
299
291
305
286
307
282
313
279
317
275
321
274
321
276
327
274
325
274
328
278
333
282
326
293
324
288
317
291
312
295
307
301
303
307
298
311
294
316
288
319
284
322
281
324
278
325
275
324
272
322
271
321
271
317
271
315
273
310
278
307
282
301
287
296
291
291
296
286
301
281
304
276
308
273
312
270
315
269
318
268
319
268
320
269
319
270
319
273
316
277
314
281
309
286
306
291
301
296
299
301
291
304
286
309
281
313
278
317
275
321
275
321
272
322
271
324
272
322
276
322
275
318
279
314
284
311
290
307
293
302
298
296
303
293
308
294
315
284
317
279
319
277
322
276
326
275
333
278
326
275
325
276
324
281
322
284
319
289
316
295
313
300
308
305
304
310
297
313
292
315
283
316
277
317
273
319
269
319
268
319
267
318
267
317
269
316
272
314
276
311
280
307
285
301
289
296
295
292
299
289
307
283
309
277
312
274
316
274
320
270
331
276
322
269
320
271
321
274
322
280
319
282
315
287
311
293
309
297
304
301
299
309
294
311
289
316
284
319
280
323
279
325
277
328
277
329
277
329
277
327
279
326
283
323
285
318
290
313
293
307
297
301
300
295
304
289
307
282
311
278
314
274
316
272
319
270
320
270
322
270
321
272
321
273
319
276
316
281
312
285
307
289
303
294
297
298
292
303
288
308
283
313
278
315
275
319
272
320
270
321
271
323
271
323
273
322
274
321
278
316
283
313
286
308
291
302
295
299
301
292
306
289
310
283
314
279
318
279
322
277
325
275
326
274
327
276
328
277
327
281
325
284
323
290
319
294
316
299
311
304
306
309
300
313
294
316
289
320
284
323
281
326
279
328
278
329
277
329
277
328
278
326
280
324
283
319
286
315
290
309
293
303
296
298
301
291
305
285
309
280
312
277
314
272
317
270
320
269
320
267
318
267
323
271
317
270
313
273
309
279
306
284
302
288
297
293
294
300
290
305
286
312
283
316
280
321
278
324
277
327
277
328
277
330
278
328
279
327
282
325
286
321
290
316
294
312
299
307
304
303
310
298
314
293
319
289
324
286
328
284
331
284
333
282
333
281
334
282
333
285
333
287
328
289
322
292
321
298
313
299
306
304
301
309
295
313
289
316
284
319
280
322
278
325
276
326
275
327
275
326
275
325
277
323
279
321
285
319
288
313
290
307
299
304
310
300
307
293
313
287
320
285
317
277
318
274
320
269
320
268
319
267
320
269
319
271
318
275
315
279
312
283
307
288
302
293
298
298
294
306
291
315
286
315
280
317
276
318
273
320
270
321
269
320
269
321
270
319
272
316
275
313
277
308
280
303
285
297
290
294
298
291
300
287
305
287
312
279
318
272
317
268
315
267
318
268
317
266
316
266
315
269
313
272
312
277
307
282
303
287
298
291
294
296
289
301
284
305
279
309
275
314
275
318
271
318
270
321
270
321
272
320
270
318
271
315
275
311
279
308
283
302
288
299
293
294
297
289
302
284
307
279
313
276
315
279
320
275
327
271
321
269
322
271
323
272
321
275
319
282
319
287
314
290
314
296
304
298
298
302
292
306
287
310
280
312
276
315
272
317
270
318
269
320
269
321
270
320
272
321
276
320
285
323
293
314
289
306
294
300
297
295
302
289
304
283
308
279
312
278
317
275
320
274
322
272
322
272
323
272
322
274
321
277
319
281
314
285
311
289
305
295
303
300
297
303
290
306
287
313
280
315
276
315
271
315
269
317
268
319
268
318
269
318
271
317
276
315
279
314
285
309
293
309
300
304
302
296
309
292
311
287
311
282
315
277
318
276
319
274
321
272
322
273
323
273
322
276
320
277
317
282
313
287
310
290
306
294
300
298
292
301
287
304
280
307
275
310
272
313
269
315
269
317
269
319
269
319
270
319
273
317
276
315
281
312
285
308
291
304
296
301
302
296
307
291
312
287
317
283
319
280
321
278
324
276
325
274
325
274
324
274
322
276
320
279
317
283
313
289
309
292
305
297
300
302
295
306
290
311
285
314
280
317
278
320
276
322
275
323
275
324
275
324
276
323
279
321
282
318
285
314
290
309
293
304
299
299
303
295
307
289
312
285
314
280
317
276
318
274
320
272
321
272
322
272
321
272
320
275
317
279
314
282
309
286
305
290
300
296
296
302
292
306
287
309
281
313
278
316
275
320
273
322
273
322
273
324
276
324
277
323
280
322
284
318
287
314
291
309
295
303
299
298
303
292
308
288
312
289
322
289
327
289
336
282
330
282
324
274
322
272
324
274
319
275
316
278
312
284
309
287
303
293
299
296
292
300
287
303
282
308
278
311
275
314
271
317
270
318
269
318
270
319
270
319
272
318
275
314
281
312
285
309
289
302
292
298
295
292
301
287
305
284
311
280
315
278
318
276
321
275
323
274
323
272
322
273
321
274
319
277
315
280
311
285
307
289
302
292
296
297
293
301
288
307
283
312
281
318
275
317
272
317
271
319
270
320
270
320
271
320
274
318
277
315
281
312
285
307
290
303
294
298
299
293
303
287
308
283
312
278
314
276
317
273
319
271
320
272
322
272
322
274
321
276
320
280
316
284
313
287
308
292
303
297
299
302
294
306
289
312
286
315
282
319
279
322
278
324
276
325
275
327
277
328
279
326
282
324
285
321
288
317
292
312
297
307
301
302
306
297
310
291
314
287
318
283
320
280
322
277
324
276
325
275
327
277
327
279
324
281
322
284
319
289
315
292
311
296
306
302
301
307
296
311
291
316
288
319
283
322
280
324
278
326
276
327
276
326
276
325
278
323
279
320
282
317
287
312
291
308
295
302
299
298
305
292
308
287
313
283
316
279
319
276
320
274
323
274
324
274
325
276
328
276
321
289
327
286
315
287
320
308
315
313
306
302
297
306
291
313
291
313
285
316
278
320
276
321
275
325
274
324
273
324
275
323
276
322
279
319
283
315
288
311
291
305
295
300
299
295
304
289
307
285
311
281
315
278
318
273
319
271
318
270
320
268
318
269
317
269
314
272
310
276
307
280
303
285
298
290
294
294
289
299
285
304
281
309
277
313
275
316
272
318
271
319
271
320
272
320
272
320
274
318
278
315
281
311
286
307
291
303
295
298
300
294
304
288
308
284
313
280
317
278
319
275
321
274
322
274
323
274
322
275
321
276
319
280
315
284
312
290
308
292
303
296
298
304
294
307
291
309
282
313
278
314
275
318
274
322
277
323
272
321
272
322
274
322
276
318
279
314
285
311
288
307
292
301
296
296
301
291
305
286
309
281
312
278
316
275
317
272
320
272
321
271
321
271
320
273
319
274
316
278
312
282
308
286
304
290
298
293
293
298
288
303
283
307
278
311
276
314
274
317
272
320
272
320
271
321
272
321
275
320
278
319
282
316
286
312
292
309
296
304
301
300
306
295
312
291
317
287
319
283
322
280
324
279
326
277
327
278
328
278
327
280
327
283
322
286
317
289
313
293
309
298
304
302
298
307
293
311
288
315
285
319
281
321
279
323
277
324
276
325
276
325
277
324
278
322
280
319
284
315
287
311
291
306
296
301
300
296
305
291
309
286
313
281
316
277
319
275
320
273
322
272
322
272
321
273
320
274
319
277
315
281
310
284
306
289
302
294
296
296
290
301
285
305
280
310
277
313
273
315
271
317
270
319
271
320
271
320
273
320
274
318
279
315
283
312
287
307
292
304
297
299
301
294
306
290
311
285
315
282
318
279
322
277
323
275
324
275
325
275
324
276
323
278
321
282
317
285
314
289
309
293
304
298
298
303
294
307
289
312
285
316
281","
300
300
300
300
300
300
300
300
300
299
300
300
300
300
299
299
299
299
299
299
298
299
298
299
298
298
298
298
298
298
298
298
298
298
299
298
299
298
298
298
299
299
299
299
299
300
300
300
299
299
300
299
299
299
299
299
300
299
300
299
299
299
299
299
300
300
299
300
300
300
300
300
300
300
300
299
299
299
299
299
299
299
299
299
299
299
299
299
299
300
299
299
299
300
300
300
300
300
299
300
300
300
300
300
300
300
300
300
300
300
300
300
300
300
301
301
301
301
301
301
302
302
302
302
302
301
302
302
302
302
302
302
302
302
301
301
300
300
299
299
299
299
298
298
298
298
298
297
297
297
296
296
295
295
295
296
297
298
298
300
300
300
301
302
302
302
302
302
302
301
302
302
302
301
302
301
302
301
301
301
301
301
302
301
302
301
302
301
302
302
301
301
301
301
301
300
300
299
298
298
297
297
296
296
296
295
295
294
294
294
294
294
294
295
295
295
295
296
297
298
298
299
297
297
297
297
297
297
296
297
297
297
297
298
297
298
297
297
297
297
297
298
298
298
298
298
298
298
298
298
298
298
298
298
299
299
299
300
300
300
300
301
301
301
302
302
302
301
301
301
301
301
300
300
300
300
299
298
298
298
298
297
297
297
296
298
297
298
298
299
299
299
300
300
301
301
301
301
300
301
302
303
304
304
304
304
304
304
304
304
304
303
303
303
303
302
302
301
301
301
301
300
300
299
299
298
297
297
297
296
296
295
295
295
294
295
295
295
296
296
297
297
297
298
298
298
299
299
300
300
300
299
300
300
301
302
303
303
302
302
303
304
304
305
304
305
304
304
304
303
303
303
302
302
302
302
300
300
300
299
299
298
298
297
297
297
296
296
296
296
296
296
296
296
297
296
297
297
298
298
298
299
298
298
298
299
299
300
299
299
300
301
301
301
301
301
301
301
301
302
301
302
302
302
302
302
302
302
302
302
302
302
302
301
301
301
301
301
301
301
300
300
300
300
299
299
299
298
298
298
298
297
297
296
297
296
296
296
296
296
296
296
296
295
296
298
298
299
299
300
300
299
299
299
301
302
303
302
303
303
302
303
303
304
304
305
304
304
303
304
304
303
303
304
303
304
303
302
303
302
302
302
302
301
301
300
300
299
299
298
297
297
297
296
297
297
296
296
296
295
295
295
294
294
295
295
294
295
296
296
297
297
297
297
298
299
299
301
301
301
302
303
301
302
303
303
303
304
303
304
304
304
304
304
303
304
304
304
304
304
304
304
304
304
303
303
303
302
302
301
301
300
300
299
299
298
298
297
296
296
296
295
296
294
295
294
294
293
292
292
291
290
288
289
289
289
289
290
290
289
291
291
293
293
294
295
296
297
298
300
301
302
302
303
304
304
305
305
304
305
305
305
305
305
305
305
305
305
304
303
303
302
301
301
301
301
301
300
300
300
300
299
299
299
299
298
297
296
296
296
296
296
296
295
294
294
295
294
295
296
296
296
296
296
297
298
299
298
299
300
301
302
303
304
304
304
305
305
305
305
306
306
306
306
306
306
306
305
305
306
305
305
304
304
304
303
303
303
303
303
302
302
301
300
300
299
298
298
297
297
297
296
295
294
295
295
296
295
296
296
297
297
298
298
298
299
298
299
299
300
300
300
301
300
300
301
301
302
301
301
301
301
301
301
301
301
301
301
301
301
301
301
301
302
301
301
302
301
302
301
301
300
300
300
300
300
299
299
298
298
298
298
298
298
298
298
297
297
297
297
297
296
297
296
296
295
296
296
296
296
296
295
294
292
294
294
295
296
295
294
294
295
296
297
298
299
299
300
300
300
301
303
302
303
304
303
304
305
306
306
306
306
306
306
306
306
306
306
306
305
305
305
304
304
304
304
303
303
302
302
302
302
302
301
301
300
300
300
299
299
298
298
298
298
298
297
298
297
297
297
297
297
297
297
297
297
296
297
297
298
298
298
298
300
300
300
300
300
300
300
301
301
301
302
302
303
303
303
302
303
303
303
303
303
303
302
302
302
302
302
302
302
301
301
300
300
300
299
299
298
298
297
296
296
296
297
297
296
296
295
295
295
296
297
298
297
298
297
295
296
298
299
300
299
298
299
299
299
300
301
301
301
301
302
301
302
302
302
303
302
303
303
303
303
303
304
304
303
303
303
303
303
302
302
302
301
302
302
301
301
300
300
300
299
299
299
298
298
298
299
298
298
298
298
298
298
298
298
299
298
298
298
299
299
298
298
298
298
299
299
299
298
298
298
298
298
298
299
298
299
299
298
299
299
298
299
298
298
298
299
298
299
298
299
298
299
299
299
299
299
300
300
300
299
300
300
300
300
300
300
300
300
300
301
301
301
300
300
300
300
301
301
300
300
300
300
299
300
300
300
300
300
301
300
300
300
300
301
301
301
302
301
301
301
301
301
300
300
300
300
300
300
299
300
300
300
300
300
300
300
299
299
299
299
298
299
298
299
299
298
298
298
297
298
297
298
297
297
298
298
298
297
298
298
298
297
298
298
299
299
299
299
299
299
299
299
300
299
300
300
299
300
299
299
300
300
299
299
300
299
300
300
299
299
299
299
299
299
299
299
298
299
298
299
299
299
298
299
298
299
299
298
299
298
298
298
299
299
299
299
299
299
299
299
298
298
298
298
297
297
297
297
298
298
298
297
297
297
297
297
297
298
298
298
298
298
298
299
298
299
299
299
299
298
298
298
298
298
298
298
298
298
298
299
299
299
298
299
299
299
299
299
300
299
299
299
299
299
300
300
300
301
300
301
301
301
300
300
301
301
301
301
301
301
301
301
302
302
302
302
302
302
303
302
303
303
303
302
302
302
301
301
301
301
300
300
301
300
300
300
300
299
299
299
299
299
299
299
299
300
299
300
299
299
299
299
298
298
299
299
298
298
299
299
298
299
299
300
300
300
300
301
301
300
299
299
299
299
299
299
300
300
299
299
299
299
299
299
299
299
300
300
300
299
299
298
298
298
298
300
300
300
300
299
298
298
297
297
297
299
298
298
298
297
297
297
297
297
297
298
297
297
296
297
297
298
299
298
297
297
296
295
294
294
296
296
297
298
298
299
300
299
300
300
300
300
301
301
302
301
302
301
301
302
302
302
302
302
303
303
303
302
302
302
302
302
302
302
303
302
303
302
302
302
302
302
302
302
302
302
302
303
302
302
302
301
301
301
300
299
300
300
301
301
301
301
301
302
301
301
300
301
300
300
299
299
299
299
299
299
299
299
299
299
299
299
299
299
300
299
299
299
300
300
299
299
300
299
299
298
299
299
299
300
299
300
299
299
299
299
299
299
299
298
299
299
299
299
298
299
298
299
299
299
299
298
298
299
299
300
299
299
300
300
300
300
300
300
300
300
300
300
300
300
300
301
301
301
300
300
300
301
300
300
300
300
300
300
300
300
299
299
300
299
300
299
300
300
301
301
301
301
300
301
300
300
300
300
300
300
299
300
299
299
299
299
299
300
300
300
300
300
300
300
299
300
299
300
299
299
299
300
299
299
299
299
299
299
299
299
299
299
299
299
299
299
300
299
299
299
299
299
299
299
300
299
299
299
299
299
299
299
299
299
300
299
300
300
300
300
299
299
299
299
298
298
298
298
298
298
298
299
299
299
298
299
298
299
299
299
299
299
299
299
299
300
299
299
299
299
300
300
300
300
300
300
300
299
300
300
299
299
299
299
300
299
299
299
299
299
299
299
299
299
299
299
299
298
300
299
299
299
299
299
299
299
299
299
299
299
299
299
299
299
299
299
299
299
299
299
299
299
299
299
299
299
299
300
299
300
300
300
300
301
300
300
300
300
300
300
300
300
300
300
300
300
299
300
300
300
300
300
300
300
300
300
300
300
299
300
299
299
300
299
300
299
300
300
300
299
300
300
299
299
299
299
299
299
299
299
299
299
299
299
299
299
299
299
299
299
299
299
299
299
298
299
299
299
299
299
299
299
299
299
299
299
299
299
299
298
299
299
299
299
299
299
300
300
300
300
300
300
300
300
300
300
300
300
300
300
300
300
300
300
301
301
301
300
300
300
300
300
300
300
300
300
301
300
300
301
300
300
300
300
299
300
300
300
300
300
299
300
300
300
299
300
299
299
299
299
299
300
299
299
299
299
299
299
299
299
299
299
299
298
299
298
299
299
299
300
299
299
299
299
299
299
299
299
300
299
299
299
299
299
299
299
299
299
299
300
299
299
300
300
300
301
301
301
301
302
302
302
302
302
301
302
301
301
301
301
301
301
300
300
300
300
300
299
299
299
298
298
298
298
298
297
297
297
297
297
297
297
298
297
298
297
298
297
297
297
297
297
297
297
297
297
298
298
298
298
299
299
299
299
299
300
299
300
300
300
300
300
300
301
300
301
300
300
300
300
300
300
299
300
300
300
300
300
300
300
299
300
299
300
299
299
299
299
299
299
299
299
299
299
300
299
300
299
300
299
299
300
299
299
300
299
299
299
299
299
299
